,1994/03,1994/06,1994/09,1994/12,1995/03,1995/06,1995/09,1995/12,1996/03,1996/06,1996/09,1996/12,1997/03,1997/06,1997/09,1997/12,1998/03,1998/06,1998/09,1998/12,1999/03,1999/06,1999/09,1999/12,2000/03,2000/06,2000/09,2000/12,2001/03,2001/06,2001/09,2001/12,2002/03,2002/06,2002/09,2002/12,2003/03,2003/06,2003/09,2003/12,2004/03,2004/06,2004/09,2004/12,2005/03,2005/06,2005/09,2005/12,2006/03,2006/06,2006/09,2006/12,2007/03,2007/06,2007/09,2007/12,2008/03,2008/06,2008/09,2008/12,2009/03,2009/06,2009/09,2009/12,2010/03,2010/06,2010/09,2010/12,2011/03,2011/06,2011/09,2011/12,2012/03,2012/06,2012/09,2012/12,2013/03
% of EPS-to-Industry,300.0,395.5,450.0,107.0,90.6,94.5,104.2,110.0,91.8,81.8,57.9,53.7,47.8,0.0,0.0,134.5,1366.7,-172.7,-66.7,-22.8,-14.5,-21.2,-722.2,623.4,286.7,218.7,75.7,77.9,88.0,91.2,99.2,105.8,101.6,66.2,25.0,34.9,70.5,81.0,82.0,100.5,98.2,104.9,118.0,109.6,134.1,139.2,154.1,162.9,165.2,165.4,151.4,143.2,133.4,128.4,125.8,118.4,114.1,112.4,182.8,429.6,1931.1,-23503.0,-118.1,766.6,100.3,97.9,78.6,23.4,25.5,51.4,126.9,170.8,211.1,303.9,452.1,224.8,518.8
% of PE-to-Industry,56.9,39.2,39.6,77.3,119.5,99.5,90.5,89.5,112.3,124.0,154.6,147.9,149.7,0.0,0.0,72.7,24.2,0.0,0.0,0.0,0.0,0.0,0.0,9.5,22.7,42.3,138.2,173.8,123.7,103.8,90.1,107.7,101.7,171.9,413.3,320.6,149.2,120.7,117.1,85.3,85.0,106.0,94.7,107.5,106.3,120.3,113.7,112.4,102.4,101.6,117.1,102.0,123.1,113.0,105.0,126.4,190.7,177.5,108.8,49.0,9.5,0.0,0.0,28.9,212.5,264.5,285.5,793.3,873.2,415.8,157.2,147.4,138.6,87.8,68.2,148.8,64.0
% of ROE-to-Industry,226.6,371.1,271.2,200.0,91.4,138.1,88.2,171.8,83.1,82.0,62.9,91.0,51.2,0.0,0.0,172.7,170.2,488.9,0.0,0.0,0.0,0.0,0.0,1258.7,444.9,462.4,121.6,153.3,102.0,146.5,104.7,176.8,67.1,46.5,12.1,59.4,79.1,114.5,95.9,125.6,88.1,111.9,86.4,112.8,84.1,116.7,96.7,137.2,108.5,129.7,93.7,106.4,72.6,91.4,69.2,87.6,60.8,77.8,100.8,219.5,422.8,751.7,0.0,0.0,0.0,0.0,0.0,0.0,0.0,0.0,0.0,0.0,0.0,0.0,0.0,86.0,202.6
% of current ratio-to-industry,100.0,118.2,127.3,90.9,118.2,127.3,120.0,118.2,160.0,150.0,100.0,90.9,100.0,0.0,0.0,90.9,120.0,90.9,90.0,90.0,100.0,100.0,90.9,100.0,90.9,130.0,100.0,100.0,81.8,90.9,90.0,90.0,100.0,133.3,120.0,140.0,136.4,170.0,145.5,80.0,100.0,110.0,110.0,90.0,144.4,140.0,166.7,130.0,160.0,166.7,185.7,137.5,125.0,100.0,111.1,100.0,111.1,100.0,127.3,120.0,155.6,172.7,83.3,140.0,83.3,109.1,66.7,110.0,140.0,125.0,127.3,108.3,100.0,91.7,145.5,100.0,108.3
% of debt/equity-to-industry,17.8,22.8,19.6,24.3,18.6,24.4,23.5,33.8,31.0,27.9,27.3,52.9,52.6,0.0,0.0,75.3,58.5,60.2,80.8,88.1,80.5,80.6,106.1,117.4,82.6,88.6,91.5,112.9,61.0,62.7,60.0,82.6,71.0,90.5,84.7,104.2,77.5,83.3,75.4,93.0,86.2,85.5,75.9,77.6,67.3,65.4,53.8,42.6,37.8,35.7,28.3,27.7,26.4,29.2,34.0,36.2,29.1,31.3,42.0,43.8,41.1,56.6,53.7,53.8,48.2,77.1,78.7,104.3,91.3,95.3,80.0,87.0,75.0,76.0,79.3,83.0,79.6
% of earnings-to-industry,10.8,12.3,13.8,5.4,4.7,4.7,4.8,4.6,3.9,3.8,2.9,2.1,2.0,0.0,0.0,4.0,6.5,17.1,-20.9,-1.0,-0.6,-0.9,-18.5,20.2,12.7,9.6,3.2,2.2,2.8,2.7,2.7,2.7,1.5,0.7,0.2,0.8,1.6,1.8,1.9,1.8,1.7,1.7,1.8,1.9,2.4,2.5,2.9,3.3,3.4,3.2,2.9,2.6,2.3,2.3,2.2,2.2,2.1,2.1,3.6,6.2,13.9,22.9,-3.6,0.0,0.0,0.0,0.0,0.0,0.0,0.0,0.0,0.0,0.0,0.0,0.0,3.4,8.3
% of gross profit margin-to-industry,202.4,188.6,185.2,214.2,203.6,204.6,211.7,202.1,196.6,220.6,210.5,189.5,187.3,0.0,0.0,215.3,211.9,220.7,217.1,269.8,276.0,276.4,288.0,274.6,258.0,261.0,259.0,229.5,236.2,234.1,232.7,212.8,191.5,175.9,159.0,148.9,149.4,141.3,139.8,172.8,169.8,172.5,173.5,166.9,163.7,164.1,160.4,176.5,174.6,176.5,174.7,184.5,188.3,188.2,184.9,189.9,191.1,209.3,213.0,219.2,264.5,248.1,266.0,212.3,173.5,176.8,180.6,223.5,210.3,232.6,227.6,158.3,172.4,157.0,157.3,153.5,143.6
% of leverage-to-industry,67.9,64.3,62.1,66.7,63.3,64.3,63.3,66.7,62.1,64.3,64.3,73.1,76.9,0.0,0.0,80.8,72.4,72.4,82.1,82.8,79.3,79.3,87.1,93.1,84.4,78.8,86.7,88.9,75.9,75.0,73.3,85.2,75.0,82.1,82.8,92.6,85.7,88.5,88.5,95.8,95.8,91.7,87.5,87.0,87.0,82.6,79.2,78.3,81.8,77.3,73.9,73.9,70.8,73.9,73.9,73.9,78.3,79.2,81.8,85.7,81.8,81.8,69.2,81.8,81.8,90.5,95.2,95.5,90.9,95.2,90.9,95.2,90.9,90.5,87.0,95.5,95.5
% of net profit margin-to-industry,718.2,846.4,1008.0,468.6,449.1,436.7,434.5,413.2,359.3,323.4,256.4,206.5,197.8,0.0,0.0,410.5,628.0,1566.7,-2200.0,-97.3,-61.8,-90.5,-1932.4,2730.8,1651.2,1220.8,365.6,266.0,296.2,296.3,304.0,341.3,243.9,137.0,47.6,117.6,186.6,181.9,184.2,200.0,194.9,205.2,209.3,202.2,224.4,215.6,214.6,223.7,224.1,225.6,212.4,225.3,206.6,200.0,192.5,201.5,174.3,156.6,246.3,460.2,1051.4,1695.8,-287.2,0.0,0.0,0.0,0.0,0.0,0.0,0.0,0.0,0.0,0.0,0.0,0.0,83.6,189.4
% of post-tax profit margin-to-industry,877.8,1030.4,1050.0,468.6,449.1,436.7,434.5,421.2,365.5,323.4,256.4,206.5,197.8,0.0,0.0,331.9,475.8,940.0,-5500.0,-91.3,-58.8,-86.4,-1881.6,2730.8,1651.2,1220.8,365.6,266.0,296.2,296.3,307.1,341.3,243.9,140.0,45.5,112.7,182.8,177.3,185.6,201.7,196.6,205.2,209.3,211.7,235.2,226.9,229.8,234.2,235.2,237.7,219.6,241.7,222.9,216.4,208.1,212.6,180.9,165.4,256.7,483.5,1226.7,2142.1,-266.7,0.0,0.0,0.0,0.0,0.0,0.0,0.0,0.0,0.0,0.0,0.0,0.0,83.6,193.5
% of pre-tax profit margin-to-industry,403.8,329.9,350.7,285.1,191.7,219.2,207.5,278.4,240.0,450.9,332.5,171.7,178.0,0.0,0.0,240.2,282.4,434.9,747.4,-96.3,-57.8,-98.4,-2736.0,1361.5,882.7,711.7,302.8,241.5,273.5,273.1,272.7,305.3,204.6,97.8,18.0,82.6,152.6,165.4,173.7,188.9,181.7,178.4,181.1,182.7,204.7,208.6,218.8,239.0,231.6,235.8,218.3,233.5,222.1,213.6,204.7,214.9,181.5,161.1,257.5,493.3,1454.8,3090.9,-326.0,2600.0,150.5,139.0,121.5,60.4,66.0,100.0,165.0,89.6,90.5,106.3,129.3,100.0,149.4
% of pric/free cashlow-to-industry,-827.6,-375.7,465.3,266.6,2345.3,41.5,146.4,111.1,-129.0,3342.4,329.2,48.8,100.8,0.0,0.0,297.9,5706.0,815.2,321.9,235.1,375.6,481.7,468.1,-482.4,-92.2,-218.8,-153.2,-13.1,0.0,9.5,-18.6,-164.2,223.0,177.9,206.6,304.2,29.4,10.7,16.5,18.5,39.3,-35.9,-38.3,2006.3,-18.6,-108.3,-139.6,-32.4,-68.1,-196.4,7875.3,430.8,164.2,88.6,136.7,120.8,100.1,-119.9,291.0,97.1,10.1,-19.3,43.7,-85.2,6.0,-0.6,14.3,6.4,-62.7,12.8,30.2,31.5,48.1,31.5,78.7,93.8,2.8
% of price-to-industry,206.1,201.0,169.9,82.7,108.1,94.2,94.0,98.3,103.2,101.5,89.2,81.2,73.9,0.0,0.0,72.7,76.2,78.3,84.1,92.4,78.6,73.0,70.0,59.5,64.9,92.6,104.5,135.5,108.8,94.6,89.3,113.9,103.3,111.2,103.3,110.3,105.7,97.7,95.6,85.8,83.5,111.6,111.8,118.0,142.6,167.4,175.3,183.1,169.1,167.9,177.2,145.9,164.2,145.2,132.1,149.7,217.6,199.3,199.0,210.5,181.6,182.6,195.7,223.7,213.5,258.9,224.1,185.1,222.3,213.5,199.3,251.8,292.6,267.5,307.7,333.9,329.5
% of price/book-to-industry,209.9,199.5,152.6,141.9,167.7,163.0,135.6,168.4,148.3,153.6,136.6,148.4,119.5,0.0,0.0,140.4,145.2,148.2,168.8,158.0,140.1,131.5,134.3,107.6,132.6,200.0,225.1,251.5,219.0,142.1,127.6,184.1,147.2,185.2,152.2,168.2,139.0,137.9,117.7,104.9,91.1,125.3,115.3,120.6,123.3,162.0,135.4,153.6,122.9,132.1,121.9,108.3,104.5,105.5,86.5,110.9,135.3,143.8,114.7,114.3,85.7,91.5,80.4,119.4,95.9,140.6,108.9,102.7,111.6,93.2,77.3,110.5,114.9,114.5,111.7,141.1,134.6
% of price/cashflow-to-industry,185.1,122.4,145.6,104.3,247.6,167.3,223.8,152.9,247.9,249.0,247.7,149.3,217.5,0.0,0.0,112.3,183.7,164.7,174.4,76.3,94.5,81.9,34.6,26.7,63.5,76.9,215.5,161.6,230.8,103.8,127.9,121.4,183.5,187.9,224.7,154.0,162.2,119.2,124.2,85.5,102.8,114.3,140.5,112.3,161.7,151.7,156.4,126.0,127.1,111.9,137.5,102.8,137.3,108.0,114.9,115.6,197.1,150.2,109.6,77.0,54.1,48.8,63.8,127.9,184.1,205.7,175.3,143.9,177.4,153.8,140.1,132.6,127.3,114.5,122.3,115.9,113.2
% of price/sales-to-industry,665.9,451.8,557.8,334.6,824.1,511.8,659.8,407.6,639.6,603.6,548.1,336.0,463.8,0.0,0.0,324.8,533.7,498.8,517.2,379.1,501.4,433.7,392.9,233.0,487.7,530.6,680.4,437.8,636.6,288.1,373.9,358.0,540.8,547.1,609.2,329.1,323.5,221.5,227.6,168.0,202.0,231.1,279.3,218.3,327.8,298.8,300.0,252.3,253.1,229.6,274.5,229.6,296.4,231.4,240.8,254.7,386.6,289.7,281.3,238.5,217.0,205.4,236.1,289.8,299.4,317.5,266.4,255.7,284.0,250.3,215.5,116.4,126.0,107.0,123.8,136.6,127.5
% of sales-to-industry,1.5,1.4,1.4,1.2,1.0,1.1,1.1,1.1,1.1,1.2,1.1,1.0,1.0,0.0,0.0,1.0,1.0,1.1,1.0,1.1,1.0,1.0,1.0,0.7,0.8,0.8,0.9,0.8,0.9,0.9,0.9,0.8,0.6,0.5,0.5,0.7,0.9,1.0,1.0,0.9,0.9,0.8,0.9,0.9,1.1,1.2,1.4,1.5,1.5,1.4,1.4,1.2,1.1,1.1,1.1,1.1,1.2,1.3,1.4,1.4,1.3,1.3,1.2,1.3,1.4,1.5,1.6,1.2,1.3,1.5,1.7,3.8,4.2,4.3,4.5,4.1,4.3
(increase) decrease in inventories,0.0,-3.0,-4.3,-2.2,-0.3,0.3,4.1,4.0,-2.0,-4.1,-7.7,-9.0,-7.4,-8.7,-11.3,-11.3,-2.3,-2.8,-3.0,-7.5,1.2,4.4,3.5,5.2,1.9,1.5,2.4,2.3,-3.7,-3.8,-5.0,-2.2,0.6,1.8,0.8,-0.1,0.6,-0.0,-1.9,-3.0,-1.8,-8.3,-8.8,-17.9,-8.7,-12.2,-14.7,-23.1,-13.4,-35.1,-54.0,-50.4,-8.8,-2.5,4.2,9.6,3.3,-9.2,-45.4,-92.0,-22.9,-22.2,-23.6,-50.1,-53.3,-67.4,-134.2,-171.8,-67.7,-127.1,-167.6,-176.6,10.2,-103.6,-154.8,-156.8,-15.1
(increase) decrease in other current assets,0.0,0.0,0.0,0.0,0.0,0.0,0.0,0.0,0.0,0.0,0.0,0.0,0.0,0.0,0.0,0.0,0.0,0.0,0.0,0.0,0.0,0.0,0.0,0.0,0.0,0.0,0.0,0.0,0.0,0.0,0.0,0.0,0.0,0.0,0.0,0.0,0.0,0.0,0.0,0.0,0.0,0.0,0.0,0.0,0.0,0.0,0.0,0.0,0.0,0.0,0.0,0.0,0.0,0.0,0.0,0.0,0.0,0.0,0.0,0.0,0.0,0.0,0.0,0.0,0.0,-24.5,0.0,0.0,0.0,0.0,0.0,0.0,0.0,0.0,0.0,0.0,0.0
(increase) decrease in prepaid expenses,0.0,0.0,0.0,0.0,0.0,0.0,0.0,0.0,0.0,0.0,0.0,0.0,0.0,0.0,0.0,0.0,0.0,0.0,0.0,0.0,0.0,0.0,0.0,0.0,0.0,0.0,0.0,0.0,0.0,0.0,0.0,0.0,0.0,0.0,0.0,0.0,0.0,0.0,0.0,0.0,0.0,0.0,0.0,0.0,0.0,0.0,0.0,0.0,0.0,0.0,0.0,0.0,0.0,0.0,0.0,0.0,0.0,0.0,0.0,0.0,0.0,0.0,0.0,0.0,0.0,0.0,0.0,0.0,0.0,0.0,0.0,0.0,0.0,0.0,0.0,0.0,0.0
(increase) decrease in receivables,0.0,19.6,31.0,-0.9,16.0,2.7,-9.1,-17.5,4.7,-16.2,-20.3,-120.4,50.5,73.4,47.1,48.9,39.0,40.2,44.3,36.4,23.7,19.2,-0.8,-12.9,-30.4,-77.4,-115.7,-191.5,55.8,100.2,138.8,146.2,9.1,-9.7,0.9,-61.6,-111.0,-44.4,-15.9,-36.2,-8.4,-60.5,-55.4,-151.8,5.5,-5.1,-171.4,-315.6,135.2,169.4,110.5,9.9,22.9,20.7,78.3,-85.0,-177.7,-395.5,-219.9,95.2,156.9,149.0,119.1,-47.8,-95.8,-39.3,-124.8,-339.1,-113.9,-165.3,-129.0,-339.8,-89.9,115.4,-112.2,-178.7,-236.8
Basic EPS (Continuing),0.19,0.21,0.26,0.14,0.10,0.15,0.11,0.11,0.08,0.15,0.10,0.11,0.08,0.08,0.10,0.14,0.09,0.05,0.02,0.03,0.02,0.07,1.88,0.20,0.17,0.32,0.49,0.68,0.92,0.58,0.30,-0.12,-0.12,0.16,0.12,0.18,0.59,0.47,0.50,0.32,0.43,0.61,0.72,0.87,0.85,1.04,1.43,1.92,1.76,1.36,1.23,0.98,0.89,1.26,0.83,1.47,0.98,0.72,6.30,1.86,0.64,-0.07,0.02,1.61,0.47,0.24,-0.28,0.21,0.52,1.11,2.03,0.44,1.22,1.48,1.33,-1.90,1.84
Basic EPS (Cum. Effect of Acct. Change),0.00,0.00,0.00,0.00,0.00,0.00,0.00,0.00,0.00,0.00,0.00,0.00,0.00,0.00,0.00,0.00,0.00,0.00,0.00,0.00,0.00,0.00,0.00,0.00,0.00,0.00,0.00,0.00,0.00,0.00,0.00,0.00,0.00,0.00,0.00,0.00,-0.03,0.00,0.00,0.00,0.00,0.00,0.00,0.00,0.00,0.00,0.00,0.00,0.00,0.00,0.00,0.00,0.00,0.00,0.00,0.00,0.00,0.00,0.00,0.00,0.00,0.00,0.00,0.00,0.00,0.00,0.00,0.00,0.00,0.00,0.00,0.00,0.00,0.00,0.00,0.00,0.00
Basic EPS (Discontinued),0.00,0.00,0.00,0.00,0.00,0.00,0.00,0.00,0.00,0.00,0.00,0.00,0.00,0.00,0.00,0.00,0.00,0.00,0.00,0.00,0.00,0.00,0.00,0.00,0.00,0.00,0.00,0.00,0.00,0.00,0.00,0.00,0.00,0.00,0.00,0.00,0.00,0.00,0.00,0.00,0.00,0.00,0.00,0.00,0.00,0.00,0.00,0.00,0.00,0.00,0.00,0.00,0.00,0.00,0.00,0.00,0.00,0.00,0.00,0.00,0.00,0.00,0.00,0.00,0.00,0.00,0.00,0.00,0.00,0.00,0.00,0.00,0.00,0.00,0.00,0.00,0.00
Basic EPS (Extraordinary Items),0.00,0.00,0.00,0.00,0.00,0.00,0.00,0.00,0.00,0.00,0.00,0.00,0.00,0.00,0.00,0.00,0.00,0.00,0.00,0.00,0.00,0.00,0.00,0.00,0.00,0.00,0.00,0.00,0.00,0.00,0.00,0.00,0.00,0.00,0.00,0.00,0.00,0.00,0.00,0.00,0.00,0.00,0.00,0.00,0.00,0.00,0.00,0.00,0.00,0.00,0.00,0.00,0.00,0.00,0.00,0.00,0.00,0.00,0.00,0.00,0.00,0.00,0.00,0.00,0.00,0.00,0.00,0.00,0.00,0.00,0.00,0.00,0.00,0.00,0.00,0.00,0.00
Basic EPS (Other Gains/Losses),0.00,0.00,0.00,0.00,0.00,0.00,0.00,0.00,0.00,0.00,0.00,0.00,0.00,0.00,0.00,0.00,0.00,0.00,0.00,0.00,0.00,0.00,0.00,0.00,0.00,0.00,0.00,0.00,0.00,0.00,0.00,0.00,0.00,0.00,0.00,0.00,0.00,0.00,0.00,0.00,0.00,0.00,0.00,0.00,0.00,0.00,0.00,0.00,0.00,0.00,0.00,0.00,0.00,0.00,0.00,0.00,0.00,0.00,0.00,0.00,0.00,0.00,0.00,0.00,0.00,0.00,0.00,0.00,0.00,0.00,0.00,0.00,0.00,0.00,0.00,0.00,0.00
Basic EPS (Tax Loss Carry Forward),0.00,0.00,0.00,0.00,0.00,0.00,0.00,0.00,0.00,0.00,0.00,0.00,0.00,0.00,0.00,0.00,0.00,0.00,0.00,0.00,0.00,0.00,0.00,0.00,0.00,0.00,0.00,0.00,0.00,0.00,0.00,0.00,0.00,0.00,0.00,0.00,0.00,0.00,0.00,0.00,0.00,0.00,0.00,0.00,0.00,0.00,0.00,0.00,0.00,0.00,0.00,0.00,0.00,0.00,0.00,0.00,0.00,0.00,0.00,0.00,0.00,0.00,0.00,0.00,0.00,0.00,0.00,0.00,0.00,0.00,0.00,0.00,0.00,0.00,0.00,0.00,0.00
Close PE Ratio,24.6,26.4,22.6,20.4,25.7,20.9,21.8,27.3,29.3,31.0,28.3,28.7,24.1,25.2,30.9,27.2,28.0,26.6,29.2,47.9,69.3,72.3,5.4,4.4,4.7,6.6,16.9,16.9,8.8,6.8,6.0,11.9,31.7,90.2,449.5,62.4,19.4,15.8,12.3,12.6,13.7,16.4,16.2,13.8,16.3,16.7,18.3,14.3,11.9,10.9,10.6,11.9,16.3,17.0,18.5,20.4,26.9,33.4,9.6,6.8,5.8,7.9,34.5,44.8,46.5,42.6,46.3,145.1,171.8,67.5,18.5,24.0,23.4,17.6,25.4,57.2,46.9
Diluted EPS (Continuing),0.19,0.21,0.26,0.14,0.10,0.15,0.11,0.11,0.08,0.15,0.10,0.11,0.07,0.08,0.10,0.14,0.09,0.05,0.02,0.03,0.02,0.07,1.84,0.20,0.17,0.32,0.48,0.67,0.90,0.57,0.30,-0.11,-0.12,0.15,0.11,0.18,0.58,0.46,0.50,0.31,0.42,0.60,0.71,0.85,0.83,1.02,1.40,1.88,1.73,1.34,1.21,0.96,0.88,1.24,0.82,1.44,0.96,0.71,6.20,1.84,0.63,-0.07,0.02,1.59,0.46,0.24,-0.28,0.21,0.52,1.10,2.01,0.44,1.20,1.47,1.31,-1.87,1.82
Diluted EPS (Cum. Effect of Acct. Change),0.00,0.00,0.00,0.00,0.00,0.00,0.00,0.00,0.00,0.00,0.00,0.00,0.00,0.00,0.00,0.00,0.00,0.00,0.00,0.00,0.00,0.00,0.00,0.00,0.00,0.00,0.00,0.00,0.00,0.00,0.00,0.00,0.00,0.00,0.00,0.00,-0.03,0.00,0.00,0.00,0.00,0.00,0.00,0.00,0.00,0.00,0.00,0.00,0.00,0.00,0.00,0.00,0.00,0.00,0.00,0.00,0.00,0.00,0.00,0.00,0.00,0.00,0.00,0.00,0.00,0.00,0.00,0.00,0.00,0.00,0.00,0.00,0.00,0.00,0.00,0.00,0.00
Diluted EPS (Discontinued),0.00,0.00,0.00,0.00,0.00,0.00,0.00,0.00,0.00,0.00,0.00,0.00,0.00,0.00,0.00,0.00,0.00,0.00,0.00,0.00,0.00,0.00,0.00,0.00,0.00,0.00,0.00,0.00,0.00,0.00,0.00,0.00,0.00,0.00,0.00,0.00,0.00,0.00,0.00,0.00,0.00,0.00,0.00,0.00,0.00,0.00,0.00,0.00,0.00,0.00,0.00,0.00,0.00,0.00,0.00,0.00,0.00,0.00,0.00,0.00,0.00,0.00,0.00,0.00,0.00,0.00,0.00,0.00,0.00,0.00,0.00,0.00,0.00,0.00,0.00,0.00,0.00
Diluted EPS (Extraordinary),0.00,0.00,0.00,0.00,0.00,0.00,0.00,0.00,0.00,0.00,0.00,0.00,0.00,0.00,0.00,0.00,0.00,0.00,0.00,0.00,0.00,0.00,0.00,0.00,0.00,0.00,0.00,0.00,0.00,0.00,0.00,0.00,0.00,0.00,0.00,0.00,0.00,0.00,0.00,0.00,0.00,0.00,0.00,0.00,0.00,0.00,0.00,0.00,0.00,0.00,0.00,0.00,0.00,0.00,0.00,0.00,0.00,0.00,0.00,0.00,0.00,0.00,0.00,0.00,0.00,0.00,0.00,0.00,0.00,0.00,0.00,0.00,0.00,0.00,0.00,0.00,0.00
Diluted EPS (Other Gains/Losses),0.00,0.00,0.00,0.00,0.00,0.00,0.00,0.00,0.00,0.00,0.00,0.00,0.00,0.00,0.00,0.00,0.00,0.00,0.00,0.00,0.00,0.00,0.00,0.00,0.00,0.00,0.00,0.00,0.00,0.00,0.00,0.00,0.00,0.00,0.00,0.00,0.00,0.00,0.00,0.00,0.00,0.00,0.00,0.00,0.00,0.00,0.00,0.00,0.00,0.00,0.00,0.00,0.00,0.00,0.00,0.00,0.00,0.00,0.00,0.00,0.00,0.00,0.00,0.00,0.00,0.00,0.00,0.00,0.00,0.00,0.00,0.00,0.00,0.00,0.00,0.00,0.00
Diluted EPS (Tax Loss Carry Forward),0.00,0.00,0.00,0.00,0.00,0.00,0.00,0.00,0.00,0.00,0.00,0.00,0.00,0.00,0.00,0.00,0.00,0.00,0.00,0.00,0.00,0.00,0.00,0.00,0.00,0.00,0.00,0.00,0.00,0.00,0.00,0.00,0.00,0.00,0.00,0.00,0.00,0.00,0.00,0.00,0.00,0.00,0.00,0.00,0.00,0.00,0.00,0.00,0.00,0.00,0.00,0.00,0.00,0.00,0.00,0.00,0.00,0.00,0.00,0.00,0.00,0.00,0.00,0.00,0.00,0.00,0.00,0.00,0.00,0.00,0.00,0.00,0.00,0.00,0.00,0.00,0.00
Dividends Paid Per Share (YTD),0.03,0.06,0.09,0.06,0.02,0.03,0.05,0.06,0.00,0.02,0.03,0.05,0.02,0.03,0.05,0.06,0.02,0.03,0.05,0.06,0.02,0.03,0.05,0.06,0.02,0.03,0.05,0.07,0.02,0.04,0.06,0.08,0.00,0.02,0.04,0.06,0.02,0.04,0.07,0.09,0.03,0.06,0.09,0.12,0.03,0.07,0.11,0.15,0.04,0.10,0.16,0.22,0.06,0.15,0.24,0.33,0.09,0.21,0.33,0.47,0.14,0.28,0.43,0.57,0.15,0.30,0.46,0.61,0.16,0.32,0.48,0.64,0.16,0.33,0.50,0.67,0.17
EPS from Total Operations (YTD),0.19,0.40,0.66,0.46,0.10,0.25,0.35,0.44,0.08,0.23,0.32,0.44,0.07,0.15,0.25,0.39,0.09,0.13,0.15,0.18,0.02,0.09,1.80,2.00,0.17,0.48,0.96,1.62,0.90,1.46,1.76,1.65,-0.12,0.04,0.15,0.33,0.58,1.03,1.53,1.83,0.42,1.02,1.73,2.58,0.83,1.85,3.25,5.13,1.73,3.07,4.28,5.24,0.88,2.12,2.93,4.37,0.96,1.67,7.88,9.72,0.63,0.57,0.58,2.17,0.46,0.70,0.42,0.63,0.52,1.63,3.66,4.10,1.20,2.67,3.98,2.11,1.82
High PE Ratio,31.0,31.0,30.0,26.8,25.9,23.9,25.4,28.8,31.7,31.8,34.8,34.8,35.6,42.5,39.4,34.6,30.6,33.0,40.8,68.1,102.1,76.8,6.5,6.3,5.6,6.9,17.8,17.5,12.1,10.9,11.7,16.8,39.0,100.3,551.9,69.0,21.6,17.3,13.4,13.0,14.2,17.5,16.5,14.8,16.3,17.0,18.8,16.0,14.4,13.7,14.1,16.6,18.1,19.0,20.9,21.0,29.1,36.9,15.6,14.9,15.5,15.6,37.5,46.9,50.9,49.8,57.2,182.5,176.0,78.3,31.6,29.6,25.3,23.4,27.1,59.0,50.6
"Income, Restructuring and M&A;",0.0,0.0,0.0,0.0,0.0,0.0,0.0,0.0,0.0,0.0,0.0,0.0,0.0,0.0,0.0,0.0,0.0,0.0,0.0,0.0,0.0,0.0,0.0,0.0,0.0,0.0,0.0,0.0,0.0,0.0,0.0,0.0,0.0,0.0,0.0,0.0,0.0,0.0,0.0,0.0,0.0,0.0,0.0,0.0,0.0,0.0,0.0,0.0,0.0,0.0,0.0,0.0,0.0,0.0,0.0,0.0,0.0,0.0,0.0,0.0,0.0,0.0,0.0,0.0,0.0,0.0,0.0,0.0,0.0,0.0,0.0,0.0,0.0,0.0,0.0,0.0,0.0
LT-Debt as % of Invested Capital,13.8,15.2,15.3,15.4,15.4,15.9,18.8,19.9,21.3,19.2,19.6,26.9,29.3,33.5,34.7,36.7,38.1,39.6,45.7,47.2,47.7,46.5,55.0,46.7,45.3,44.9,43.1,38.3,29.6,27.9,29.3,34.3,37.5,38.1,39.6,40.6,36.4,33.8,32.5,33.3,31.9,30.5,28.1,26.8,26.2,24.7,21.3,16.6,14.6,13.0,11.4,11.6,12.3,12.3,15.2,14.5,14.1,13.4,17.3,17.1,18.8,23.0,22.5,21.6,21.4,26.9,27.1,32.8,29.8,29.3,28.6,28.4,27.8,27.3,31.4,30.8,30.0
LT-Debt as % of Total Debt,18.7,21.4,22.0,23.3,21.9,23.3,27.2,29.4,32.5,29.6,30.4,39.1,42.5,49.5,50.8,51.4,55.5,58.2,63.7,65.8,68.6,69.0,70.8,66.9,63.5,63.8,58.2,53.0,43.6,41.3,41.3,48.3,52.6,54.4,53.8,53.5,46.5,44.8,43.5,43.9,41.1,41.0,39.4,37.8,37.8,36.9,32.8,25.0,23.1,22.0,19.1,19.3,20.6,20.9,24.5,23.2,20.6,16.9,26.9,26.8,30.7,36.6,35.8,34.0,33.1,40.0,38.4,43.9,42.6,42.1,40.7,41.1,39.9,39.6,44.3,42.0,40.8
LT-Debt to Equity Ratio,0.16,0.18,0.18,0.18,0.19,0.19,0.23,0.25,0.27,0.24,0.24,0.37,0.41,0.50,0.53,0.58,0.62,0.65,0.84,0.89,0.91,0.87,1.22,1.01,0.95,0.93,0.86,0.70,0.47,0.42,0.45,0.57,0.66,0.67,0.72,0.75,0.62,0.55,0.52,0.53,0.50,0.47,0.41,0.38,0.37,0.34,0.28,0.20,0.17,0.15,0.13,0.13,0.14,0.14,0.18,0.17,0.16,0.15,0.21,0.21,0.23,0.30,0.29,0.28,0.27,0.37,0.37,0.49,0.42,0.41,0.40,0.40,0.39,0.38,0.46,0.44,0.43
Low PE Ratio,19.6,19.6,19.0,18.9,17.8,16.5,17.1,19.5,20.8,20.8,21.3,25.4,23.1,24.3,24.3,22.4,21.3,23.3,19.6,32.6,49.0,42.0,3.3,3.6,3.0,2.7,6.0,4.2,4.5,5.1,5.3,7.8,20.2,58.6,345.6,46.9,14.7,11.4,9.5,9.8,11.0,10.4,10.1,8.2,7.6,8.1,7.8,6.2,7.0,8.9,9.1,10.7,12.8,13.6,15.2,13.5,14.6,16.6,7.8,5.6,4.8,5.2,18.6,20.8,26.5,26.1,39.5,135.6,123.8,55.1,18.1,16.3,14.1,13.0,15.1,39.1,30.2
Net Income from Total Operations (YTD),30.3,64.5,105.4,148.0,29.6,77.8,110.7,142.1,25.9,73.5,104.9,140.0,23.1,47.6,78.8,122.0,27.0,40.3,46.2,56.2,5.1,25.7,538.6,569.1,41.5,119.0,235.5,396.9,215.2,351.5,423.4,398.6,-24.2,13.9,42.8,87.2,136.6,245.3,362.8,437.3,100.9,245.8,418.1,624.9,202.7,452.2,795.9,"1,259.6",426.7,758.1,"1,057.3","1,299.9",217.7,524.7,728.7,"1,089.9",241.0,419.2,"1,975.4","2,436.9",0.0,0.0,0.0,0.0,0.0,0.0,0.0,0.0,0.0,0.0,0.0,0.0,0.0,0.0,0.0,570.3,494.7
Normalized Close PE Ratio,24.6,26.4,22.6,20.4,25.7,20.9,21.8,27.3,29.3,31.0,28.3,28.7,24.1,25.2,30.9,27.2,28.0,26.6,29.2,47.9,69.3,72.3,5.4,4.4,4.7,6.6,16.9,16.9,8.8,6.8,6.0,11.3,28.2,66.2,224.8,62.4,18.7,15.3,11.9,12.6,13.2,15.3,14.7,13.8,16.4,16.6,18.5,13.5,11.0,10.1,9.6,11.0,14.8,15.5,16.4,18.0,23.6,28.1,8.9,6.3,5.3,7.1,22.0,0.0,0.0,0.0,0.0,0.0,0.0,0.0,0.0,0.0,0.0,0.0,0.0,17.7,22.2
Normalized High PE Ratio,31.0,31.0,30.0,26.8,25.9,23.9,25.4,28.8,31.7,31.8,34.8,34.8,35.6,42.5,39.4,34.6,30.6,33.0,40.8,68.1,102.1,76.8,6.5,6.3,5.6,6.9,17.8,17.5,12.1,10.9,11.7,16.0,34.6,73.6,275.9,69.0,20.8,16.6,12.9,13.0,13.7,16.3,14.9,14.8,16.4,16.9,19.1,15.0,13.3,12.7,12.9,15.3,16.4,17.3,18.5,18.5,25.5,31.0,14.5,13.8,14.0,14.0,24.0,0.0,0.0,0.0,0.0,0.0,0.0,0.0,0.0,0.0,0.0,0.0,0.0,18.3,23.9
Normalized Low PE Ratio,19.6,19.6,19.0,18.9,17.8,16.5,17.1,19.5,20.8,20.8,21.3,25.4,23.1,24.3,24.3,22.4,21.3,23.3,19.6,32.6,49.0,42.0,3.3,3.6,3.0,2.7,6.0,4.2,4.5,5.1,5.3,7.5,17.9,43.0,172.8,46.9,14.2,11.0,9.2,9.8,10.5,9.7,9.1,8.2,7.6,8.1,7.9,5.9,6.5,8.2,8.3,9.9,11.7,12.4,13.4,11.9,12.8,14.0,7.2,5.2,4.4,4.7,11.9,0.0,0.0,0.0,0.0,0.0,0.0,0.0,0.0,0.0,0.0,0.0,0.0,12.1,14.3
Normalized ROA,7.8,7.7,7.8,7.9,7.4,7.9,7.3,6.6,6.4,6.3,6.1,5.7,5.6,4.5,4.4,4.5,4.6,4.2,3.0,1.9,1.1,1.4,21.1,21.8,23.1,25.0,9.3,13.2,18.9,19.6,17.3,12.2,5.1,2.2,1.0,2.3,6.4,7.8,9.5,9.2,8.5,9.2,10.0,10.8,11.8,13.0,14.1,17.3,19.5,19.5,18.2,15.0,12.2,11.2,9.6,10.2,9.8,8.2,15.9,16.5,15.2,13.3,4.2,1.7,1.7,1.8,3.1,3.4,3.2,4.3,3.1,4.2,4.2,3.0,2.7,6.7,8.0
Normalized ROCI,12.5,12.0,12.0,12.0,11.5,12.0,10.9,9.8,9.3,9.2,8.9,8.1,7.8,6.0,5.8,6.0,6.0,5.3,3.8,2.3,1.4,1.7,25.9,26.8,29.2,31.4,12.1,17.7,26.2,27.4,24.5,16.7,6.9,2.9,1.3,3.1,9.1,11.0,13.5,13.1,12.3,13.2,14.4,15.5,16.9,18.5,20.2,25.8,29.0,28.5,27.0,22.2,18.0,16.4,14.1,15.1,15.2,13.6,23.3,24.2,21.6,18.7,5.9,2.4,2.4,2.5,4.5,4.9,4.5,6.1,4.4,5.8,6.0,4.2,3.7,9.6,11.5
Normalized ROE,14.5,14.1,14.1,14.2,13.8,14.5,13.4,12.2,11.8,11.4,11.0,11.1,11.0,9.1,8.9,9.5,9.7,8.8,7.0,4.4,2.7,3.2,57.6,57.9,61.4,65.2,24.2,32.2,41.2,41.6,37.9,27.9,12.1,5.2,2.4,5.7,15.5,18.0,21.5,21.1,19.3,20.2,21.1,22.0,23.6,25.3,26.3,31.7,34.6,33.4,31.0,25.4,20.7,18.8,16.7,17.7,17.7,15.7,28.1,29.2,26.6,24.2,7.6,3.1,3.0,3.4,6.2,7.3,6.5,8.6,6.2,8.2,8.3,5.8,5.4,13.9,16.4
Return on Assets (ROA),7.8,7.7,7.8,7.9,7.4,7.9,7.3,6.6,6.4,6.3,6.1,5.7,5.6,4.5,4.4,4.5,4.6,4.2,3.0,1.9,1.1,1.4,21.1,21.8,23.1,25.0,9.3,13.2,18.9,19.6,17.3,11.7,4.6,1.7,0.5,2.3,6.1,7.5,9.2,9.2,8.1,8.5,9.1,10.8,11.9,12.9,14.3,16.2,18.0,18.1,16.6,13.8,11.1,10.1,8.5,9.0,8.6,6.9,14.8,15.3,13.7,12.0,2.7,0.0,0.0,0.0,0.0,0.0,0.0,0.0,0.0,0.0,0.0,0.0,0.0,2.1,3.8
Return on Capital Invested (ROCI),12.5,12.0,12.0,12.0,11.5,12.0,10.9,9.8,9.3,9.2,8.9,8.1,7.8,6.0,5.8,6.0,6.0,5.3,3.8,2.3,1.4,1.7,25.9,26.8,29.2,31.4,12.1,17.7,26.2,27.4,24.5,16.0,6.1,2.2,0.7,3.1,8.6,10.6,13.1,13.1,11.8,12.3,13.0,15.5,17.0,18.4,20.5,24.3,26.7,26.5,24.6,20.5,16.4,14.9,12.4,13.3,13.3,11.5,21.7,22.4,19.6,16.8,3.8,0.0,0.0,0.0,0.0,0.0,0.0,0.0,0.0,0.0,0.0,0.0,0.0,3.0,5.4
Return on Stock Equity (ROE),14.5,14.1,14.1,14.2,13.8,14.5,13.4,12.2,11.8,11.4,11.0,11.1,11.0,9.1,8.9,9.5,9.7,8.8,7.0,4.4,2.7,3.2,57.6,57.9,61.4,65.2,24.2,32.2,41.2,41.6,37.9,26.7,10.8,4.0,1.2,5.7,14.8,17.4,20.9,21.1,18.5,18.8,19.1,22.0,23.8,25.2,26.7,29.9,31.9,31.0,28.3,23.4,18.8,17.1,14.8,15.6,15.5,13.3,26.2,27.0,24.1,21.8,4.8,0.0,0.0,0.0,0.0,0.0,0.0,0.0,0.0,0.0,0.0,0.0,0.0,4.3,7.7
Revenue (YTD),152.2,294.7,422.1,620.2,155.4,339.3,492.3,648.7,159.0,356.1,526.3,730.6,180.7,352.4,545.5,783.5,199.8,383.1,574.4,769.2,159.0,346.1,572.9,801.4,251.8,568.6,962.3,"1,489.9",597.3,"1,063.3","1,417.5","1,556.2",186.5,477.0,756.9,"1,095.0",464.4,889.4,"1,381.4","1,820.4",463.4,983.3,"1,612.3","2,302.3",688.2,"1,472.1","2,403.5","3,607.0",977.5,"1,801.8","2,664.4","3,564.8",910.5,"1,919.7","2,862.2","4,038.5","1,570.8","3,297.8","5,283.9","6,386.5","1,158.2","2,019.2","3,026.1","4,787.0","1,370.7","2,728.7","4,310.7","6,099.9","1,897.1","4,467.4","7,353.1","10,126.1","2,806.7","5,716.0","8,670.8","11,288.9","3,461.5"
accounts payable,140.1,140.3,8.8,131.2,110.3,110.4,119.0,133.7,115.5,149.2,177.1,277.6,228.9,192.2,196.8,235.7,205.5,202.9,213.8,206.3,176.2,160.7,153.0,172.8,187.4,167.0,216.8,246.0,241.4,227.0,257.7,219.6,167.0,167.9,176.9,201.9,222.8,226.4,252.2,282.4,296.5,319.5,339.3,424.6,400.8,439.5,508.8,679.5,673.9,680.6,794.6,896.6,924.6,925.8,964.5,"1,152.1","1,208.8","1,379.6","1,340.8","1,122.2",774.4,720.1,783.8,979.1,"1,134.3","1,255.7","1,541.3","1,664.9","1,839.0","1,870.2","1,926.5","2,033.6","2,289.9","2,235.6","2,151.1","2,078.9","2,258.2"
accounts receivable,0.0,0.0,0.0,0.0,0.0,0.0,0.0,0.0,0.0,0.0,0.0,0.0,0.0,0.0,0.0,0.0,0.0,0.0,0.0,0.0,0.0,0.0,0.0,0.0,0.0,0.0,0.0,0.0,286.8,244.2,206.3,194.6,185.5,204.3,196.8,259.3,370.4,303.8,274.8,295.1,303.6,355.7,350.2,447.7,441.2,450.6,631.3,762.2,627.7,597.6,656.5,754.1,734.2,741.9,678.8,835.7,"1,010.0","1,228.6","1,048.4",722.7,558.1,570.3,604.3,771.4,869.0,810.1,897.7,"1,113.3","1,228.5","1,279.7","1,249.6","1,451.2","1,543.5","1,375.1","1,579.8","1,656.6","1,891.2"
accrued expenses,0.0,0.0,0.0,0.0,0.0,0.0,0.0,0.0,0.0,0.0,0.0,0.0,0.0,0.0,0.0,0.0,0.0,0.0,0.0,0.0,0.0,0.0,0.0,0.0,0.0,0.0,0.0,0.0,0.0,0.0,0.0,16.3,0.0,0.0,0.0,0.0,0.0,0.0,0.0,0.0,0.0,0.0,0.0,0.0,0.0,0.0,0.0,0.0,0.0,0.0,0.0,0.0,0.0,0.0,0.0,0.0,0.0,0.0,0.0,0.0,0.0,0.0,0.0,0.0,0.0,0.0,0.0,0.0,0.0,0.0,0.0,0.0,0.0,0.0,0.0,0.0,0.0
accrued liabilities,0.0,0.0,0.0,0.0,0.0,0.0,0.0,0.0,0.0,0.0,0.0,0.0,0.0,0.0,0.0,0.0,0.0,0.0,0.0,0.0,0.0,0.0,0.0,0.0,0.0,0.0,0.0,0.0,0.0,0.0,0.0,40.2,0.0,31.7,33.4,34.3,35.1,29.8,38.7,0.0,51.3,50.2,59.2,51.1,90.9,0.0,97.6,140.9,169.4,131.2,143.9,131.0,80.2,101.4,102.5,104.6,105.1,137.6,136.3,86.3,78.9,78.5,86.3,92.9,90.2,0.0,114.8,82.2,136.9,0.0,0.0,0.0,0.0,0.0,0.0,0.0,0.0
accumulated depreciation,"1,226.2","1,297.6","1,274.0","1,330.6","1,454.1","1,424.9","1,423.6","1,499.4","1,509.2","1,547.7","1,606.7","1,653.6","1,714.7","1,779.5","1,850.6","1,904.2","1,973.4","2,027.9","2,097.6","2,138.1","2,222.1","2,298.3","2,458.7","2,267.8","2,330.8","2,417.7","2,499.4","2,597.7","2,681.9","2,785.3","2,889.9","3,009.7","3,098.9","3,210.9","3,301.2","3,428.5","3,538.8","3,674.8","3,792.2","3,940.1","4,048.7","4,149.1","4,311.6","4,497.7","4,646.8","4,738.8","4,939.1","5,086.2","5,269.6","5,512.5","5,734.7","5,949.8","6,212.6","6,550.9","6,921.2","7,134.0","7,388.7","7,718.0","7,985.0","8,204.2","8,539.7","9,019.0","9,524.3","9,825.2","10,325.9","10,713.0","11,557.3","12,316.0","12,748.0","13,463.5","13,453.9","14,525.6","15,235.5","15,248.6","15,944.2","17,529.2","17,906.7"
acquisitions,0.0,0.0,0.0,0.0,0.0,0.0,0.0,0.0,0.0,0.0,0.0,0.0,0.0,0.0,0.0,0.0,0.0,0.0,0.0,0.0,0.0,0.0,0.0,0.0,0.0,0.0,0.0,0.0,0.0,0.0,0.0,0.0,0.0,0.0,0.0,0.0,0.0,0.0,0.0,0.0,0.0,0.0,0.0,0.0,0.0,0.0,0.0,0.0,0.0,0.0,0.0,0.0,0.0,0.0,0.0,0.0,0.0,0.0,0.0,0.0,0.0,0.0,0.0,0.0,0.0,0.0,0.0,-210.0,0.0,0.0,0.0,0.0,0.0,0.0,0.0,0.0,0.0
additional paid-in capital,0.0,0.0,0.0,0.0,0.0,0.0,0.0,0.0,0.0,0.0,0.0,0.0,0.0,0.0,0.0,0.0,0.0,0.0,0.0,0.0,0.0,401.0,0.0,0.0,2.8,3.8,1.9,4.2,9.7,10.6,4.6,0.0,0.0,0.0,0.0,0.0,1.4,0.0,2.8,1.6,8.2,7.5,15.6,21.0,31.5,38.4,72.8,84.7,60.9,91.9,121.3,130.0,140.6,162.6,186.3,221.1,263.1,321.0,369.1,323.8,349.2,395.1,528.5,596.7,620.4,656.5,695.0,730.0,"2,148.5","2,181.2","2,230.6","2,272.1","2,328.4","2,374.1","2,459.5","2,500.3","2,539.6"
adjustments to revenue,10.0,4.7,7.3,6.3,9.8,7.8,7.9,7.0,11.5,11.2,10.0,15.4,17.3,12.4,13.0,17.3,14.5,13.3,13.8,10.3,13.7,12.4,14.2,12.4,18.4,20.7,24.2,31.6,37.0,25.4,18.7,14.2,16.0,18.0,16.9,20.9,30.2,11.7,21.4,22.6,36.1,29.8,30.0,38.1,41.9,37.6,56.4,63.1,53.7,46.9,54.1,46.2,40.6,62.0,47.1,58.3,86.8,95.3,97.8,40.9,47.4,23.5,47.8,55.6,75.5,78.1,74.2,89.3,105.9,104.3,98.5,101.9,121.5,118.2,120.1,135.6,134.9
advertising,0.0,0.0,0.0,0.0,0.0,0.0,0.0,0.0,0.0,0.0,0.0,0.0,0.0,0.0,0.0,0.0,0.0,0.0,0.0,0.0,0.0,0.0,0.0,0.0,0.0,0.0,0.0,0.0,0.0,0.0,0.0,0.0,0.0,0.0,0.0,0.0,0.0,0.0,0.0,0.0,0.0,0.0,0.0,0.0,0.0,0.0,0.0,0.0,0.0,0.0,0.0,0.0,0.0,0.0,0.0,0.0,0.0,0.0,0.0,0.0,0.0,0.0,0.0,0.0,0.0,0.0,0.0,0.0,0.0,0.0,0.0,0.0,0.0,0.0,0.0,0.0,0.0
amortization,0.0,0.0,0.0,0.0,0.0,0.0,0.0,0.0,0.0,0.0,0.0,0.0,0.0,0.0,0.0,0.0,0.0,0.0,0.0,0.0,0.0,0.0,0.0,0.0,0.0,0.0,0.0,0.0,0.0,0.0,0.0,0.0,0.0,0.0,0.0,0.0,0.0,0.0,0.0,0.0,0.0,0.0,0.0,0.0,0.0,0.0,0.0,0.0,0.0,0.0,0.0,0.0,0.0,0.0,0.0,0.0,0.0,0.0,0.0,0.0,0.0,0.0,0.0,0.0,0.0,0.0,0.0,0.0,0.0,0.0,0.0,0.0,0.0,0.0,0.0,0.0,0.0
amortization of intangibles,0.0,0.0,0.0,0.0,0.0,0.0,0.0,0.0,0.0,0.0,0.0,0.0,0.0,0.0,0.0,0.0,0.0,0.0,0.0,0.0,0.0,0.0,0.0,0.0,0.0,0.0,0.0,0.0,0.0,0.0,0.0,0.0,0.0,0.0,0.0,0.0,0.0,0.0,0.0,0.0,0.0,0.0,0.0,0.0,0.0,0.0,0.0,0.0,0.0,0.0,0.0,0.0,0.0,0.0,0.0,0.0,0.0,0.0,0.0,0.0,0.0,0.0,0.0,0.0,0.0,0.0,0.0,0.0,0.0,0.0,0.0,0.0,0.0,0.0,0.0,0.0,0.0
asset turnover,0.3,0.3,0.3,0.3,0.3,0.3,0.3,0.3,0.3,0.3,0.3,0.3,0.3,0.3,0.3,0.3,0.3,0.3,0.3,0.3,0.3,0.3,0.3,0.3,0.3,0.4,0.4,0.5,0.7,0.7,0.6,0.5,0.4,0.3,0.3,0.3,0.4,0.4,0.4,0.4,0.4,0.4,0.4,0.4,0.4,0.5,0.5,0.5,0.5,0.5,0.5,0.4,0.4,0.4,0.4,0.4,0.4,0.4,0.5,0.5,0.4,0.3,0.2,0.3,0.3,0.3,0.3,0.3,0.3,0.4,0.4,0.4,0.4,0.5,0.4,0.4,0.4
auditor name,None,None,None,None,None,None,None,None,None,None,None,None,None,None,None,None,None,None,None,None,None,None,None,None,None,None,None,None,None,None,None,None,None,None,None,None,None,None,None,None,None,None,None,None,None,None,None,None,None,None,None,None,None,None,None,None,None,None,None,None,None,None,None,None,None,None,None,None,None,None,None,None,None,None,None,None,None
auditor report,None,None,None,None,None,None,None,None,None,None,None,None,None,None,None,None,None,None,None,None,None,None,None,None,None,None,None,None,None,None,None,None,None,None,None,None,None,None,None,None,None,None,None,None,None,None,None,None,None,None,None,None,None,None,None,None,None,None,None,None,None,None,None,None,None,None,None,None,None,None,None,None,None,None,None,None,None
basic earnings indicator,N,N,N,N,N,N,N,N,Y,Y,Y,Y,Y,Y,Y,Y,Y,Y,Y,Y,Y,Y,Y,Y,Y,Y,Y,Y,Y,Y,Y,Y,Y,Y,Y,Y,Y,Y,Y,Y,Y,Y,Y,Y,Y,Y,Y,Y,Y,Y,Y,Y,Y,Y,Y,Y,Y,Y,Y,Y,Y,Y,Y,Y,Y,Y,Y,Y,Y,Y,Y,Y,Y,Y,Y,Y,Y
book value per share,5.96,6.14,6.38,3.46,3.34,3.48,3.57,3.64,3.67,3.80,3.87,3.96,3.95,3.99,4.06,4.13,4.20,4.06,4.15,4.16,4.18,4.26,3.99,4.12,4.21,4.36,4.72,5.28,5.96,7.03,6.67,6.48,6.37,6.62,6.57,6.64,7.31,7.98,8.48,8.95,9.32,9.90,10.89,11.97,12.78,13.76,15.54,17.42,19.14,20.81,22.08,22.76,23.69,25.49,26.79,28.33,28.98,29.85,35.74,36.11,36.42,36.97,37.72,39.59,40.18,39.98,39.86,40.27,43.92,44.97,46.47,46.99,48.19,49.50,50.93,48.91,50.56
building and improvements,0.0,0.0,0.0,0.0,0.0,0.0,0.0,0.0,0.0,0.0,0.0,0.0,0.0,0.0,0.0,0.0,0.0,0.0,0.0,0.0,0.0,0.0,0.0,0.0,0.0,0.0,0.0,0.0,0.0,0.0,0.0,0.0,0.0,0.0,0.0,0.0,0.0,0.0,0.0,0.0,0.0,0.0,0.0,0.0,0.0,0.0,0.0,0.0,0.0,0.0,0.0,0.0,0.0,0.0,0.0,0.0,0.0,0.0,0.0,0.0,0.0,0.0,0.0,0.0,0.0,0.0,0.0,0.0,0.0,0.0,0.0,0.0,0.0,0.0,0.0,0.0,0.0
capital lease obligations,0.0,0.0,0.0,0.0,0.0,0.0,0.0,0.0,0.0,0.0,0.0,0.0,0.0,0.0,0.0,0.0,0.0,0.0,0.0,0.0,0.0,0.0,0.0,0.0,0.0,0.0,0.0,0.0,0.0,0.0,0.0,0.0,0.0,0.0,0.0,0.0,0.0,0.0,0.0,0.0,0.0,0.0,0.0,0.0,0.0,0.0,0.0,0.0,0.0,0.0,0.0,0.0,0.0,0.0,0.0,0.0,0.0,0.0,0.0,0.0,0.0,0.0,0.0,0.0,0.0,0.0,0.0,0.0,0.0,0.0,0.0,0.0,0.0,0.0,0.0,0.0,0.0
cash as % of revenue,9.8,14.6,15.2,0.9,2.7,3.3,1.3,3.5,4.1,5.7,1.4,1.0,0.5,2.3,0.8,1.2,0.6,1.7,1.1,0.8,1.8,1.6,2.4,3.1,3.7,1.1,1.4,1.4,1.7,3.4,0.6,0.2,0.5,0.9,0.9,0.9,0.5,10.0,11.1,0.2,5.4,3.7,4.1,0.9,7.0,10.3,11.0,17.8,21.1,19.3,15.4,6.1,4.0,1.6,8.0,1.3,4.4,1.9,13.7,5.2,1.4,14.3,14.7,14.3,4.6,11.8,0.5,12.9,25.2,20.1,15.2,6.1,2.7,2.5,9.7,7.8,9.3
cash at beginning of period,103.1,103.1,103.1,103.1,5.8,5.8,5.8,5.8,23.0,23.0,23.0,23.0,7.6,7.6,7.6,7.6,9.3,9.3,9.3,9.3,6.3,6.3,6.3,6.3,24.8,24.8,24.8,24.8,20.2,20.2,20.2,20.2,2.5,2.5,2.5,2.5,9.8,9.8,9.8,9.8,4.4,4.4,4.4,4.4,21.0,21.0,21.0,21.0,643.8,643.8,643.8,643.8,218.3,218.3,218.3,218.3,54.2,54.2,54.2,54.2,331.3,331.3,331.3,331.3,685.8,685.8,685.8,685.8,788.9,788.9,788.9,788.9,615.7,615.7,615.7,615.7,876.4
cash end of period,0.0,0.0,0.0,0.0,0.0,0.0,0.0,0.0,0.0,0.0,0.0,0.0,0.0,0.0,0.0,0.0,0.0,0.0,0.0,0.0,0.0,11.4,18.8,24.8,33.4,11.7,16.7,20.2,30.8,68.3,11.3,2.5,5.4,9.2,7.8,9.8,6.8,151.0,184.5,4.4,95.7,67.8,81.9,21.0,173.4,282.7,341.1,643.8,821.3,759.1,595.9,218.3,141.7,58.5,301.9,54.2,204.9,108.1,886.0,331.3,85.2,707.0,608.5,685.8,230.1,650.1,27.8,788.9,"1,668.3","1,577.4","1,386.7",615.7,294.1,280.4,"1,112.6",876.4,"1,108.0"
cash flow,392.9,397.1,392.7,390.2,377.9,378.2,371.8,358.1,353.8,363.7,365.3,391.3,377.2,353.5,366.1,400.2,392.0,384.6,360.6,371.3,370.1,404.0,"1,035.6","1,028.5","1,064.8","1,120.2",615.0,755.9,939.0,"1,005.1",971.9,780.0,541.0,443.4,397.2,474.2,644.1,723.4,822.1,868.1,842.6,888.4,963.1,"1,118.4","1,260.3","1,409.4","1,615.9","1,906.4","2,155.0","2,270.0","2,277.1","2,106.0","1,964.6","2,008.0","1,976.2","2,148.8","2,225.4","2,153.0","3,574.0","3,763.4","3,615.0","3,497.1","1,979.9","1,549.2","1,591.8","1,681.5","1,797.1","1,941.9","2,078.2","2,215.8","2,366.6","2,516.4","2,696.9","2,902.7","3,076.9","3,740.0","4,332.4"
cash flow per share,2.46,2.48,2.46,1.29,1.18,1.18,1.16,1.12,1.11,1.14,1.14,1.22,1.19,1.12,1.16,1.29,1.27,1.20,1.17,1.21,1.20,1.31,4.35,4.32,4.54,4.80,2.63,3.23,4.04,4.68,4.20,3.38,2.33,1.91,1.72,2.07,2.81,3.15,3.57,3.74,3.62,3.77,4.07,4.70,5.27,5.87,6.69,7.88,8.88,9.36,9.35,8.64,8.04,8.20,8.04,8.72,8.97,8.65,14.32,15.08,14.44,13.96,7.85,6.14,6.29,6.64,7.08,7.64,7.74,8.25,8.80,9.35,10.00,10.76,11.36,13.77,15.92
cash from discontinued financing activities,0.0,0.0,0.0,0.0,0.0,0.0,0.0,0.0,0.0,0.0,0.0,0.0,0.0,0.0,0.0,0.0,0.0,0.0,0.0,0.0,0.0,0.0,0.0,0.0,0.0,0.0,0.0,0.0,0.0,0.0,0.0,0.0,0.0,0.0,0.0,0.0,0.0,0.0,0.0,0.0,0.0,0.0,0.0,0.0,0.0,0.0,0.0,0.0,0.0,0.0,0.0,0.0,0.0,0.0,0.0,0.0,0.0,0.0,0.0,0.0,0.0,0.0,0.0,0.0,0.0,0.0,0.0,0.0,0.0,0.0,0.0,0.0,0.0,0.0,0.0,0.0,0.0
cash from discontinued investing activities,0.0,0.0,0.0,0.0,0.0,0.0,0.0,0.0,0.0,0.0,0.0,0.0,0.0,0.0,0.0,0.0,0.0,0.0,0.0,0.0,0.0,0.0,0.0,0.0,0.0,0.0,0.0,0.0,0.0,0.0,0.0,0.0,0.0,0.0,0.0,0.0,0.0,0.0,0.0,0.0,0.0,0.0,0.0,0.0,0.0,0.0,0.0,0.0,0.0,0.0,0.0,0.0,0.0,0.0,0.0,0.0,0.0,0.0,0.0,0.0,0.0,0.0,0.0,0.0,0.0,0.0,0.0,0.0,0.0,0.0,0.0,0.0,0.0,0.0,0.0,0.0,0.0
cash per share,0.36,0.54,0.54,0.02,0.05,0.06,0.03,0.07,0.08,0.12,0.03,0.02,0.01,0.05,0.02,0.03,0.02,0.04,0.03,0.02,0.04,0.04,0.08,0.10,0.14,0.05,0.07,0.09,0.13,0.32,0.05,0.01,0.02,0.04,0.03,0.04,0.03,0.66,0.80,0.02,0.41,0.29,0.35,0.09,0.73,1.18,1.41,2.66,3.39,3.13,2.45,0.90,0.58,0.24,1.23,0.22,0.83,0.43,3.55,1.33,0.34,2.82,2.41,2.72,0.91,2.57,0.11,3.10,6.22,5.87,5.16,2.29,1.09,1.04,4.11,3.23,4.07
common par,0.0,0.0,0.0,0.0,0.0,0.0,0.0,0.0,0.0,0.0,0.0,0.0,0.0,0.0,0.0,0.0,0.0,0.0,0.0,0.0,0.0,201.6,201.2,201.2,201.2,201.2,201.2,201.2,201.2,201.2,201.2,201.2,201.2,201.2,201.2,201.2,201.2,201.2,201.2,201.2,201.2,201.2,201.2,201.2,202.5,202.5,202.5,202.5,202.5,202.5,202.5,202.5,202.5,202.5,202.5,202.5,202.5,202.5,202.5,202.5,202.5,202.5,202.5,202.5,202.5,202.5,202.5,202.5,202.7,202.7,202.7,202.7,202.7,202.7,202.7,202.7,202.7
common stock equity,952.0,981.3,"1,019.7","1,043.4","1,067.1","1,111.8","1,140.3","1,163.7","1,175.4","1,214.2","1,237.0","1,265.1","1,250.0","1,255.0","1,275.4","1,281.0","1,299.4","1,299.8","1,275.8","1,280.3","1,284.7","1,310.0",951.7,982.4,986.8,"1,016.0","1,101.3","1,233.8","1,385.0","1,511.2","1,542.0","1,495.1","1,477.4","1,537.9","1,517.9","1,524.4","1,674.8","1,833.6","1,952.1","2,075.0","2,167.0","2,329.3","2,577.2","2,846.6","3,054.8","3,300.5","3,752.5","4,217.2","4,644.2","5,049.2","5,375.0","5,546.8","5,792.7","6,239.6","6,584.1","6,985.1","7,190.5","7,426.2","8,920.0","9,014.5","9,115.5","9,259.5","9,517.7","9,998.0","10,164.9","10,131.0","10,118.1","10,231.6","11,788.4","12,077.2","12,493.8","12,640.9","12,991.8","13,355.1","13,793.5","13,284.8","13,756.3"
construction in progress,0.0,0.0,0.0,0.0,0.0,0.0,0.0,0.0,0.0,0.0,0.0,0.0,0.0,0.0,0.0,0.0,0.0,0.0,0.0,0.0,0.0,0.0,0.0,0.0,0.0,0.0,0.0,0.0,0.0,0.0,0.0,0.0,0.0,0.0,0.0,0.0,0.0,0.0,0.0,0.0,0.0,0.0,0.0,0.0,0.0,0.0,0.0,0.0,0.0,0.0,0.0,0.0,0.0,0.0,0.0,0.0,0.0,0.0,0.0,0.0,0.0,0.0,0.0,0.0,0.0,0.0,0.0,0.0,0.0,0.0,0.0,0.0,0.0,0.0,0.0,0.0,0.0
cost in excess,0.0,0.0,0.0,0.0,0.0,0.0,0.0,0.0,0.0,0.0,0.0,0.0,0.0,0.0,0.0,0.0,0.0,0.0,0.0,0.0,0.0,0.0,0.0,0.0,0.0,0.0,0.0,0.0,0.0,0.0,0.0,0.0,0.0,0.0,0.0,0.0,0.0,0.0,0.0,0.0,0.0,0.0,0.0,0.0,0.0,0.0,0.0,0.0,0.0,0.0,0.0,0.0,0.0,0.0,0.0,0.0,0.0,0.0,0.0,0.0,0.0,0.0,0.0,0.0,0.0,0.0,0.0,0.0,0.0,0.0,0.0,0.0,0.0,0.0,0.0,0.0,0.0
cost of sales,31.0,38.6,33.0,41.7,36.9,39.7,36.9,34.5,48.8,39.0,41.5,47.4,56.6,60.4,44.2,58.7,69.2,60.1,69.0,21.5,49.2,44.0,42.9,89.8,52.9,50.1,56.7,65.7,94.3,90.2,87.3,121.6,76.0,82.9,79.4,116.5,72.4,104.7,107.2,33.8,100.4,104.2,112.0,140.5,132.3,137.4,161.5,103.8,165.7,163.2,171.9,217.1,185.3,217.8,249.2,263.8,250.8,268.3,280.3,476.4,316.7,282.1,274.4,299.9,344.6,337.7,352.7,375.2,405.8,379.3,447.2,445.6,461.7,466.0,492.0,480.3,505.9
cost of sales with depreciation,31.0,38.6,33.0,41.7,36.9,39.7,36.9,34.5,48.8,39.0,41.5,47.4,56.6,60.4,44.2,58.7,69.2,60.1,69.0,21.5,49.2,44.0,42.9,89.8,52.9,50.1,56.7,65.7,94.3,90.2,87.3,121.6,76.0,82.9,79.4,116.5,72.4,104.7,107.2,33.8,100.4,104.2,112.0,140.5,132.3,137.4,161.5,103.8,165.7,163.2,171.9,217.1,185.3,217.8,249.2,263.8,250.8,268.3,280.3,476.4,316.7,282.1,274.4,299.9,344.6,337.7,352.7,375.2,405.8,379.3,447.2,445.6,461.7,466.0,492.0,480.3,505.9
cumulative translation adjustments,0.0,0.0,0.0,0.0,0.0,0.0,0.0,0.0,0.0,0.0,0.0,0.0,0.0,0.0,0.0,0.0,0.0,0.0,0.0,0.0,0.0,-26.1,-25.3,-19.8,-21.9,-27.3,0.0,0.0,0.0,0.0,0.0,0.0,0.0,0.0,0.0,0.0,0.0,0.0,0.0,0.0,0.0,0.0,0.0,0.0,0.0,0.0,0.0,0.0,0.0,0.0,0.0,0.0,0.0,0.0,0.0,0.0,0.0,0.0,0.0,0.0,0.0,0.0,0.0,0.0,0.0,0.0,0.0,0.0,0.0,0.0,0.0,0.0,0.0,0.0,0.0,0.0,0.0
current assets per share,1.24,1.35,1.30,0.52,0.59,0.62,0.60,0.68,0.72,0.84,0.72,1.02,0.87,0.86,0.88,0.91,0.92,0.77,0.77,0.80,0.74,0.73,0.85,0.84,1.01,1.14,1.42,1.69,1.54,1.79,1.45,1.18,1.15,1.19,1.36,1.72,2.16,2.41,2.42,1.71,2.17,2.34,2.36,2.47,3.06,3.61,4.74,6.46,6.86,6.59,6.50,5.54,4.61,4.35,5.33,5.24,6.81,8.39,9.92,8.45,7.23,8.83,7.26,7.29,6.11,7.56,6.04,9.95,13.40,13.55,13.89,12.10,11.28,10.93,14.77,13.22,15.00
current defered income taxes,0.0,0.0,0.0,0.0,0.0,0.0,0.0,0.0,0.0,0.0,0.0,0.0,0.0,0.0,0.0,0.0,0.0,0.0,0.0,0.0,0.0,0.0,0.0,0.0,0.0,0.0,0.0,0.0,0.0,0.0,0.0,0.0,0.0,0.0,0.0,0.0,0.0,0.0,0.0,31.5,46.5,39.6,22.6,22.2,25.8,26.6,28.1,24.4,0.0,0.0,0.0,0.0,9.8,0.0,0.0,33.5,191.1,347.9,0.0,0.0,6.8,0.0,0.0,0.0,5.1,1.2,0.0,9.3,28.1,0.0,0.0,0.0,0.0,0.0,121.0,0.0,102.0
current deferred income taxes,0.0,0.0,0.0,0.0,0.0,0.0,0.0,0.0,0.0,0.0,0.0,0.0,0.0,0.0,0.0,0.0,0.0,0.0,0.0,0.0,0.0,0.0,0.0,0.0,0.0,0.0,0.0,0.0,0.0,0.0,0.0,0.0,0.0,0.0,0.0,0.0,0.0,0.0,0.0,73.6,14.3,36.3,66.7,103.9,20.3,52.4,105.4,164.7,36.2,83.7,122.1,144.6,21.1,54.9,84.5,109.0,19.5,61.0,200.1,368.2,296.5,213.4,114.3,35.4,20.7,9.9,45.4,41.7,7.9,50.2,139.6,136.0,122.8,121.1,2.8,22.8,2.2
current liabilities per share,1.05,1.04,0.95,0.55,0.45,0.45,0.49,0.53,0.45,0.57,0.67,0.99,0.84,0.70,0.74,0.94,0.79,0.75,0.87,0.85,0.72,0.65,0.89,0.92,1.01,0.89,1.24,1.58,1.75,1.84,1.65,1.35,1.13,1.01,1.16,1.20,1.45,1.41,1.54,2.06,2.12,2.15,2.22,2.66,2.35,2.52,3.20,4.84,4.40,4.46,5.17,5.15,4.49,4.73,5.46,5.98,6.95,9.83,7.34,7.07,5.13,4.75,4.76,5.33,5.90,6.15,7.64,8.74,9.31,9.22,9.92,9.38,10.28,9.93,9.52,10.76,11.30
current ratio,1.2,1.3,1.4,1.0,1.3,1.4,1.2,1.3,1.6,1.5,1.1,1.0,1.0,1.2,1.2,1.0,1.2,1.0,0.9,0.9,1.0,1.1,1.0,0.9,1.0,1.3,1.1,1.1,0.9,1.0,0.9,0.9,1.0,1.2,1.2,1.4,1.5,1.7,1.6,0.8,1.0,1.1,1.1,0.9,1.3,1.4,1.5,1.3,1.6,1.5,1.3,1.1,1.0,0.9,1.0,0.9,1.0,0.9,1.4,1.2,1.4,1.9,1.5,1.4,1.0,1.2,0.8,1.1,1.4,1.5,1.4,1.3,1.1,1.1,1.6,1.2,1.3
decrease (increase) in other current liabilities,0.0,-7.4,20.9,-0.1,2.5,3.2,-39.8,3.5,-0.8,-2.7,5.0,2.7,3.7,-8.1,-0.9,22.6,-11.9,-42.4,-24.3,-10.1,-13.0,-2.7,-36.4,-20.9,8.0,2.0,9.6,66.3,51.7,59.7,-18.4,-42.0,-10.7,-5.0,-39.2,-76.9,21.9,23.6,48.6,4.9,28.5,-7.7,4.2,16.4,45.5,-0.1,6.9,86.9,29.3,-11.5,-49.1,-106.3,2.0,26.2,-22.8,-40.0,-29.3,-92.7,135.7,66.0,14.5,-17.7,-18.0,90.9,-3.8,-16.9,-40.1,-53.1,79.7,94.3,101.2,92.6,-5.2,14.4,42.8,78.1,9.0
decrease (increase) in other working capital,0.0,0.0,0.0,0.0,0.0,0.0,0.0,0.0,0.0,0.0,0.0,0.0,0.0,0.0,0.0,0.0,0.0,0.0,0.0,0.0,0.0,0.0,0.0,0.0,0.0,0.0,21.8,0.0,-15.0,-8.8,-0.0,-50.5,42.3,-25.9,-19.7,42.8,8.8,-6.9,4.0,-35.9,10.3,16.7,-0.5,-28.4,25.7,-10.9,0.8,-10.3,2.3,-7.0,-45.3,-120.3,-50.7,-45.6,-55.9,-3.4,-29.4,-70.8,-7.8,-1.7,122.0,-32.3,152.2,-17.8,-19.0,0.0,28.3,-221.8,-8.1,-16.8,8.4,228.4,-113.9,-227.1,7.5,-8.2,-157.5
decrease (increase) in payables,0.0,-16.4,-33.2,-25.6,-20.7,-30.1,-12.1,2.5,-18.1,15.5,43.4,87.5,-12.3,-42.9,-28.3,-11.5,-46.3,-37.4,-26.1,-65.2,-33.9,-46.3,-21.3,4.4,20.3,5.6,56.7,97.4,-4.9,-24.5,4.0,-26.9,-52.8,-50.8,-45.3,-19.0,20.7,24.4,50.0,79.7,14.4,37.2,58.1,136.7,-26.4,16.9,79.2,248.4,-9.5,-5.2,104.6,222.0,23.4,14.7,42.8,228.4,93.5,255.5,221.4,30.3,-352.6,-414.8,-361.7,-153.6,147.6,254.9,527.4,654.7,165.5,189.3,245.4,351.1,236.6,176.4,83.7,-17.2,186.1
deferred income taxes,0.0,1.5,25.8,1.8,4.8,25.8,15.6,45.2,-6.5,4.8,-1.7,2.3,5.6,6.4,8.5,16.7,5.5,12.0,-5.0,-26.8,-4.1,4.3,-17.6,-26.3,17.0,40.7,81.6,97.7,34.5,87.8,170.3,164.9,-9.8,3.7,38.2,82.2,50.4,80.0,123.4,191.7,32.0,84.2,158.2,204.2,44.9,109.3,172.0,270.3,106.3,153.6,258.5,385.8,97.0,223.6,328.0,426.8,83.4,123.3,790.7,"1,133.6",83.2,62.2,39.8,174.4,36.7,24.5,53.1,76.2,31.3,206.1,499.3,499.3,110.1,278.8,385.9,292.9,200.8
deferred revenues,0.0,0.0,0.0,0.0,0.0,0.0,0.0,0.0,0.0,0.0,0.0,0.0,0.0,0.0,0.0,0.0,0.0,0.0,0.0,0.0,0.0,0.0,0.0,0.0,0.0,0.0,0.0,0.0,0.0,0.0,0.0,0.0,0.0,0.0,0.0,0.0,0.0,0.0,0.0,0.0,0.0,0.0,0.0,0.0,0.0,0.0,0.0,0.0,0.0,0.0,0.0,0.0,0.0,0.0,0.0,0.0,0.0,0.0,0.0,0.0,0.0,0.0,0.0,0.0,0.0,0.0,0.0,28.3,105.2,12.4,0.0,0.0,25.8,0.0,0.0,0.0,0.0
depreciation,64.8,127.0,181.6,242.2,53.1,101.7,157.9,216.0,52.5,122.3,181.7,251.3,52.0,110.3,204.0,278.2,61.3,123.5,197.0,315.1,82.0,170.8,368.9,459.9,84.6,174.7,266.8,370.0,94.0,191.4,294.8,392.4,94.5,192.4,292.6,398.0,103.6,210.1,320.6,441.8,113.8,230.0,360.3,504.4,153.0,312.9,477.3,654.3,177.7,370.6,586.7,817.1,244.3,504.1,783.3,"1,065.5",297.2,612.5,958.7,"1,326.9",389.3,764.9,"1,150.3","1,549.2",431.9,897.2,"1,398.1","1,941.9",568.2,"1,171.2","1,822.9","2,516.4",748.7,"1,557.5","2,383.4","3,169.7",846.4
depreciation (unrecognized),64.8,62.2,54.6,60.6,53.1,48.6,56.2,58.1,52.5,59.0,59.4,69.6,52.0,58.3,72.2,74.2,61.3,62.2,73.5,118.1,82.0,88.8,198.1,91.0,84.6,90.1,92.1,103.2,94.0,97.5,103.4,97.6,94.5,98.0,100.2,105.4,103.6,106.6,110.4,121.3,113.8,116.2,130.3,144.1,153.0,159.9,164.4,177.0,177.7,192.9,216.1,230.4,244.3,259.8,279.2,282.2,297.2,315.3,346.2,368.1,389.3,375.6,385.3,398.9,431.9,465.3,500.9,543.8,568.2,602.9,651.7,693.5,748.7,808.8,825.9,786.3,846.4
domestic sales,0.0,0.0,0.0,0.0,0.0,0.0,0.0,0.0,0.0,0.0,0.0,0.0,0.0,0.0,0.0,0.0,0.0,0.0,0.0,0.0,0.0,0.0,0.0,0.0,0.0,0.0,0.0,0.0,0.0,0.0,0.0,0.0,0.0,0.0,0.0,0.0,0.0,0.0,0.0,0.0,0.0,0.0,0.0,0.0,0.0,0.0,0.0,0.0,0.0,0.0,0.0,0.0,0.0,0.0,0.0,0.0,0.0,0.0,0.0,0.0,0.0,0.0,0.0,0.0,0.0,0.0,0.0,0.0,0.0,0.0,0.0,0.0,0.0,0.0,0.0,0.0,0.0
earnings from equity interest,0.0,0.0,0.0,0.0,0.0,0.0,0.0,0.0,0.0,0.0,0.0,0.0,0.0,0.0,0.0,0.0,0.0,0.0,0.0,0.0,0.0,0.0,0.0,0.0,0.0,0.0,0.0,0.0,0.0,0.0,0.0,0.0,0.0,0.0,0.0,0.0,0.0,0.0,0.0,0.0,0.0,0.0,0.0,0.0,0.0,0.0,0.0,0.0,0.0,0.0,0.0,0.0,0.0,0.0,0.0,0.0,0.0,0.0,0.0,0.0,0.0,0.0,0.0,0.0,0.0,0.0,0.0,0.0,0.0,0.0,0.0,0.0,0.0,0.0,0.0,0.0,0.0
earnings period indicator,Q,S,N,F,Q,S,N,F,Q,S,N,F,Q,S,N,F,Q,S,N,F,Q,S,N,F,Q,S,N,F,Q,S,N,F,Q,S,N,F,Q,S,N,F,Q,S,N,F,Q,S,N,F,Q,S,N,F,Q,S,N,F,Q,S,N,F,Q,S,N,F,Q,S,N,F,Q,S,N,F,Q,S,N,F,Q
effect exchange rate changes,0.0,0.0,0.0,0.0,0.0,0.0,0.0,0.0,0.0,0.0,0.0,0.0,0.0,0.0,0.0,0.0,0.0,0.0,0.0,0.0,0.0,0.0,0.0,0.0,0.0,0.0,0.0,0.0,0.0,0.0,0.0,0.0,0.0,0.0,0.0,0.0,0.0,0.0,0.0,0.0,0.0,0.0,0.0,12.3,0.1,-0.6,5.5,3.8,-0.4,7.2,8.1,5.1,-0.3,3.7,6.8,4.7,-1.3,-4.5,-13.3,-34.8,-2.3,5.3,12.2,12.4,-0.2,1.5,-0.1,-6.1,-0.1,-0.4,-7.1,-5.1,2.9,2.7,4.8,3.4,5.1
effective tax rate,0.0,0.0,0.0,3.8,6.6,19.8,15.1,22.7,19.4,19.3,24.7,26.7,31.7,26.1,25.1,25.4,18.4,24.9,22.6,6.8,2.6,8.0,0.0,0.0,0.0,3.2,31.7,37.3,37.1,37.6,37.4,36.9,37.7,29.2,0.0,27.2,32.3,33.2,33.6,33.1,32.5,31.8,32.0,32.5,33.1,34.0,33.9,35.9,35.0,33.7,34.1,32.0,32.6,34.2,34.0,33.2,33.2,32.0,33.7,35.0,35.3,35.9,38.0,37.3,37.1,37.9,43.3,0.0,0.0,0.0,43.3,42.9,41.9,40.1,39.2,0.0,0.0
excise taxes,0.0,0.0,0.0,0.0,0.0,0.0,0.0,0.0,0.0,0.0,0.0,0.0,0.0,0.0,0.0,0.0,0.0,0.0,0.0,0.0,0.0,0.0,0.0,0.0,0.0,0.0,0.0,0.0,0.0,0.0,0.0,0.0,0.0,0.0,0.0,0.0,0.0,0.0,0.0,0.0,0.0,0.0,0.0,0.0,0.0,0.0,0.0,0.0,0.0,0.0,0.0,0.0,0.0,0.0,0.0,0.0,0.0,0.0,0.0,0.0,0.0,0.0,0.0,0.0,0.0,0.0,0.0,0.0,0.0,0.0,0.0,0.0,0.0,0.0,0.0,0.0,0.0
extraordinary gains,0.0,0.0,0.0,0.0,0.0,0.0,0.0,0.0,0.0,0.0,0.0,0.0,0.0,0.0,0.0,0.0,0.0,0.0,0.0,0.0,0.0,0.0,0.0,0.0,0.0,0.0,0.0,0.0,0.0,0.0,0.0,0.0,0.0,0.0,0.0,0.0,0.0,0.0,0.0,0.0,0.0,0.0,0.0,0.0,0.0,0.0,0.0,0.0,0.0,0.0,0.0,0.0,0.0,0.0,0.0,0.0,0.0,0.0,0.0,0.0,0.0,0.0,0.0,0.0,0.0,0.0,0.0,0.0,0.0,0.0,0.0,0.0,0.0,0.0,0.0,0.0,0.0
extraordinary income/losses,0.0,0.0,0.0,0.0,0.0,0.0,0.0,0.0,0.0,0.0,0.0,0.0,0.0,0.0,0.0,0.0,0.0,0.0,0.0,0.0,0.0,0.0,0.0,0.0,0.0,0.0,0.0,0.0,0.0,0.0,0.0,0.0,0.0,0.0,0.0,0.0,0.0,0.0,0.0,0.0,0.0,0.0,0.0,0.0,0.0,0.0,0.0,0.0,0.0,0.0,0.0,0.0,0.0,0.0,0.0,0.0,0.0,0.0,0.0,0.0,0.0,0.0,0.0,0.0,0.0,0.0,0.0,0.0,0.0,0.0,0.0,0.0,0.0,0.0,0.0,0.0,0.0
foreign sales,0.0,0.0,0.0,0.0,0.0,0.0,0.0,0.0,0.0,0.0,0.0,0.0,0.0,0.0,0.0,0.0,0.0,0.0,0.0,0.0,0.0,0.0,0.0,0.0,0.0,0.0,0.0,0.0,0.0,0.0,0.0,0.0,0.0,0.0,0.0,0.0,0.0,0.0,0.0,0.0,0.0,0.0,0.0,0.0,0.0,0.0,0.0,0.0,0.0,0.0,0.0,0.0,0.0,0.0,0.0,0.0,0.0,0.0,0.0,0.0,0.0,0.0,0.0,0.0,0.0,0.0,0.0,0.0,0.0,0.0,0.0,0.0,0.0,0.0,0.0,0.0,0.0
free cash flow,10.5,24.6,-34.8,-35.4,-2.1,-46.0,-130.6,-128.8,12.2,-2.7,-49.9,-193.4,-5.7,-63.8,-114.1,-114.2,-10.2,-86.1,-261.2,-305.3,-27.0,-33.8,-30.2,21.9,90.0,135.5,170.2,338.7,303.1,386.9,278.1,194.8,-58.3,-92.2,-99.9,-74.7,139.1,313.7,426.7,84.6,158.3,139.5,165.8,-9.9,109.2,202.8,248.9,601.7,186.3,158.8,-17.7,-301.1,-185.0,-365.2,-557.2,-869.7,-248.1,-330.1,-334.8,-677.4,-315.2,-377.7,-520.8,-722.8,-540.9,"-1,177.8","-1,992.5","-3,236.0",-769.2,"-1,475.0","-1,950.3","-2,539.6","-1,015.2","-1,579.5","-1,929.1","-2,299.4",-317.6
free cash flow per share,0.07,0.15,-0.22,-0.12,-0.01,-0.14,-0.41,-0.40,0.04,-0.01,-0.16,-0.61,-0.02,-0.20,-0.36,-0.37,-0.03,-0.27,-0.85,-0.99,-0.09,-0.11,-0.13,0.09,0.38,0.58,0.73,1.45,1.30,1.80,1.20,0.84,-0.25,-0.40,-0.43,-0.33,0.61,1.37,1.85,0.37,0.68,0.59,0.70,-0.04,0.46,0.85,1.03,2.49,0.77,0.65,-0.07,-1.24,-0.76,-1.49,-2.27,-3.53,-1.00,-1.33,-1.34,-2.71,-1.26,-1.51,-2.06,-2.86,-2.14,-4.65,-7.85,-12.74,-2.87,-5.49,-7.25,-9.44,-3.77,-5.85,-7.12,-8.47,-1.17
gross fixed assets,"2,783.0","2,871.3","2,911.8","3,015.4","3,181.9","3,200.4","3,266.8","3,380.8","3,390.8","3,429.5","3,565.4","3,753.2","3,879.7","4,016.7","4,156.8","4,291.4","4,375.2","4,487.7","4,762.9","4,814.5","4,903.4","4,965.1","4,783.0","4,602.7","4,625.6","4,709.6","4,942.8","5,122.7","5,251.4","5,529.9","5,851.1","6,065.6","6,224.0","6,438.1","6,584.0","6,750.1","7,020.9","7,269.6","7,496.0","8,189.1","8,385.0","8,616.1","9,069.6","9,599.3","9,934.0","10,193.8","10,719.5","11,173.4","11,742.4","12,446.5","13,188.9","13,893.9","14,793.5","15,890.8","16,955.4","17,563.2","18,533.2","19,706.7","21,117.4","21,861.5","22,546.3","23,464.7","24,776.9","25,964.4","27,142.9","28,137.3","29,807.1","30,996.9","32,389.5","33,460.4","34,190.1","35,814.4","37,369.4","37,938.3","39,630.7","40,866.9","41,844.6"
gross margin,0.0,0.0,0.0,0.0,0.0,0.0,0.0,0.0,0.0,0.0,0.0,0.0,0.0,0.0,0.0,0.0,0.0,0.0,0.0,0.0,0.0,0.0,0.0,0.0,198.9,266.1,337.0,461.9,503.0,375.8,266.9,17.1,110.5,207.6,200.4,221.7,392.0,320.1,325.5,405.1,363.0,414.8,459.5,549.5,555.9,646.5,771.5,"1,099.7",811.8,664.8,690.8,683.3,725.2,791.3,693.4,912.5,"1,320.0","1,597.1","1,557.5",626.2,841.6,579.0,732.5,"1,461.0","1,026.1","1,020.2","1,229.4","1,414.0","1,491.3","2,191.0","2,438.5","2,327.4","2,344.9","2,443.4","2,462.9","2,137.8","2,955.5"
gross profit margin,76.1,74.5,73.7,76.7,73.9,75.5,75.8,77.2,75.5,76.1,76.0,77.3,75.5,71.7,72.2,74.7,71.0,71.5,68.4,71.5,72.6,74.9,79.5,76.6,74.3,77.0,79.0,84.9,85.5,84.5,82.6,74.7,67.2,62.1,59.8,67.6,74.4,75.3,75.9,81.9,80.3,81.4,82.4,80.1,80.2,80.9,81.5,84.2,85.4,84.9,84.4,79.9,78.9,78.5,76.9,77.3,79.1,81.4,83.5,80.0,77.5,72.7,67.3,76.2,76.0,77.1,78.0,76.9,77.8,80.7,82.4,83.4,84.3,84.0,83.7,83.2,83.7
income before income taxes,0.0,0.0,0.0,0.0,0.0,0.0,0.0,0.0,0.0,0.0,0.0,0.0,0.0,0.0,0.0,0.0,0.0,0.0,0.0,0.0,0.0,0.0,0.0,0.0,0.0,0.0,0.0,0.0,340.1,224.9,115.0,-48.5,-35.9,55.6,42.9,57.1,211.0,165.7,179.6,97.6,152.0,212.7,262.3,298.9,311.6,386.9,518.4,748.2,629.8,464.3,466.0,352.5,335.3,465.9,318.6,511.1,370.1,256.4,"2,394.0",735.1,264.8,-23.6,4.6,626.2,197.2,110.1,-38.8,139.6,225.7,543.2,899.2,241.6,520.1,646.2,560.2,-445.8,761.0
income from cum. effect of acct. change,0.0,0.0,0.0,0.0,0.0,0.0,0.0,0.0,0.0,0.0,0.0,0.0,0.0,0.0,0.0,0.0,0.0,0.0,0.0,0.0,0.0,0.0,0.0,0.0,0.0,0.0,0.0,0.0,0.0,0.0,0.0,0.0,0.0,0.0,0.0,0.0,-7.1,0.0,0.0,0.0,0.0,0.0,0.0,0.0,0.0,0.0,0.0,0.0,0.0,0.0,0.0,0.0,0.0,0.0,0.0,0.0,0.0,0.0,0.0,0.0,0.0,0.0,0.0,0.0,0.0,0.0,0.0,0.0,0.0,0.0,0.0,0.0,0.0,0.0,0.0,0.0,0.0
income from tax loss carryforward,0.0,0.0,0.0,0.0,0.0,0.0,0.0,0.0,0.0,0.0,0.0,0.0,0.0,0.0,0.0,0.0,0.0,0.0,0.0,0.0,0.0,0.0,0.0,0.0,0.0,0.0,0.0,0.0,0.0,0.0,0.0,0.0,0.0,0.0,0.0,0.0,0.0,0.0,0.0,0.0,0.0,0.0,0.0,0.0,0.0,0.0,0.0,0.0,0.0,0.0,0.0,0.0,0.0,0.0,0.0,0.0,0.0,0.0,0.0,0.0,0.0,0.0,0.0,0.0,0.0,0.0,0.0,0.0,0.0,0.0,0.0,0.0,0.0,0.0,0.0,0.0,0.0
income per employee,None,None,None,227692,None,None,None,218615,None,None,None,215385,None,None,None,147879,None,None,None,47227,None,None,None,753775,None,None,None,466978,None,None,None,415225,None,None,None,87173,None,None,None,397524,None,None,None,499884,None,None,None,899697,None,None,None,827952,None,None,None,605510,None,None,None,1160438,None,None,None,None,None,None,None,None,None,None,None,None,None,None,None,215200,None
income taxes,8.8,2.4,9.5,-14.8,9.9,23.2,0.4,8.5,1.4,22.8,12.0,14.8,14.2,-0.5,9.8,17.9,1.2,8.9,-2.0,-4.0,-2.0,11.6,-28.6,-20.4,24.2,46.9,72.5,93.1,124.8,88.7,43.0,-23.7,-11.6,17.4,14.0,12.7,74.4,57.0,62.2,23.1,51.2,67.8,90.0,92.1,108.9,137.4,174.7,284.6,203.1,132.9,166.9,109.9,117.7,158.8,114.6,149.9,129.2,69.2,837.7,273.6,106.1,-6.9,0.4,225.8,79.1,50.2,32.1,85.9,91.7,247.7,358.3,120.9,196.1,250.5,204.7,59.2,266.3
"income, acquired in process r&a;",0.0,0.0,0.0,0.0,0.0,0.0,0.0,0.0,0.0,0.0,0.0,0.0,0.0,0.0,0.0,0.0,0.0,0.0,0.0,0.0,0.0,0.0,0.0,0.0,0.0,0.0,0.0,0.0,0.0,0.0,0.0,0.0,0.0,0.0,0.0,0.0,0.0,0.0,0.0,0.0,0.0,0.0,0.0,0.0,0.0,0.0,0.0,0.0,0.0,0.0,0.0,0.0,0.0,0.0,0.0,0.0,0.0,0.0,0.0,0.0,0.0,0.0,0.0,0.0,0.0,0.0,0.0,0.0,0.0,0.0,0.0,0.0,0.0,0.0,0.0,0.0,0.0
intangibles,0.0,0.0,0.0,0.0,0.0,0.0,0.0,0.0,0.0,0.0,0.0,0.0,0.0,0.0,0.0,0.0,0.0,0.0,0.0,0.0,0.0,0.0,0.0,0.0,0.0,0.0,0.0,0.0,0.0,0.0,0.0,0.0,0.0,0.0,0.0,0.0,0.0,0.0,0.0,0.0,0.0,0.0,0.0,0.0,0.0,0.0,0.0,0.0,0.0,0.0,0.0,0.0,0.0,0.0,0.0,0.0,0.0,0.0,0.0,0.0,0.0,0.0,0.0,0.0,0.0,0.0,0.0,0.0,0.0,0.0,0.0,0.0,0.0,0.0,0.0,0.0,0.0
intangibles as % of book-value,0.0,0.0,0.0,0.0,0.0,0.0,0.0,0.0,0.0,0.0,0.0,0.0,0.0,0.0,0.0,0.0,0.0,0.0,0.0,0.0,0.0,0.0,0.0,0.0,0.0,0.0,0.0,0.0,0.0,0.0,0.0,0.0,0.0,0.0,0.0,0.0,0.0,0.0,0.0,0.0,0.0,0.0,0.0,0.0,0.0,0.0,0.0,0.0,0.0,0.0,0.0,0.0,0.0,0.0,0.0,0.0,0.0,0.0,0.0,0.0,0.0,0.0,0.0,0.0,0.0,0.0,0.0,0.0,0.0,0.0,0.0,0.0,0.0,0.0,0.0,0.0,0.0
interest as % of invested capital,0.9,0.8,0.7,0.7,0.7,0.7,0.8,0.8,0.9,0.9,0.8,0.7,0.8,0.9,1.2,1.4,1.5,1.7,1.8,2.0,2.2,2.4,2.9,2.9,3.0,3.0,2.8,2.7,2.7,2.4,2.1,1.8,1.7,1.7,2.0,2.1,2.2,2.1,1.9,1.8,1.8,1.7,1.6,1.6,1.4,1.3,1.2,1.2,1.1,1.0,0.9,0.7,0.6,0.5,0.5,0.6,0.6,0.6,0.5,0.5,0.5,0.6,0.7,0.8,0.8,0.8,0.8,0.9,0.9,1.0,1.1,1.2,1.2,1.1,1.0,1.1,1.1
interest coverage (cont. operations),13.6,15.2,17.4,19.1,18.0,20.5,16.5,16.5,14.0,13.2,16.2,15.8,15.5,10.6,7.7,6.9,5.9,5.2,3.7,2.2,1.7,1.8,9.6,10.2,10.5,11.9,7.4,11.4,16.2,19.4,19.6,15.0,6.8,2.8,1.3,3.0,6.8,8.6,11.3,12.1,10.9,11.4,12.7,15.7,19.0,22.1,27.4,32.4,38.0,40.7,42.5,45.3,44.0,45.9,39.2,35.9,33.4,30.2,72.8,73.5,61.2,44.8,10.1,4.2,3.8,4.1,4.4,2.9,2.7,3.6,5.0,4.9,5.4,5.4,4.7,7.0,9.2
interest expense,2.2,1.9,2.1,2.4,2.7,2.5,3.5,3.1,4.1,3.3,1.4,4.1,5.1,5.5,8.0,9.1,9.1,10.4,13.6,15.4,14.3,14.8,16.9,15.8,14.6,15.6,14.8,16.1,13.3,10.6,10.2,11.0,12.1,14.2,18.8,14.7,15.3,13.8,15.6,14.0,16.7,15.4,16.1,14.9,14.0,14.7,13.9,20.0,13.2,12.4,10.1,7.5,7.6,10.8,12.6,15.8,12.2,9.0,12.1,18.3,18.4,24.8,30.4,27.3,25.4,29.9,32.9,41.4,50.3,51.3,52.2,56.6,50.3,50.8,53.2,59.4,61.9
interest income,0.0,0.0,0.0,0.0,0.0,0.0,0.0,0.0,0.0,0.0,0.0,0.0,0.0,0.0,0.0,0.0,0.0,0.0,0.0,0.0,0.0,0.0,0.0,0.0,0.0,0.0,0.0,0.0,0.0,0.0,0.0,0.0,0.0,0.0,0.0,0.0,0.0,0.0,0.0,0.0,0.0,0.0,0.0,0.0,0.0,0.0,0.0,0.0,0.0,0.0,0.0,0.0,0.0,0.0,0.0,0.0,0.0,0.0,0.0,0.0,0.0,0.0,0.0,0.0,0.0,0.0,0.0,0.0,0.0,0.0,0.0,0.0,0.0,0.0,0.0,0.0,0.0
inventories,0.0,16.6,17.9,15.7,16.1,15.4,11.6,11.7,13.7,15.8,19.4,20.7,28.2,29.5,32.1,32.0,34.4,34.8,35.1,39.6,38.4,35.2,20.5,18.8,17.0,17.4,16.6,16.6,20.3,20.4,21.6,18.9,18.3,17.1,18.1,18.9,18.3,19.0,20.8,21.9,23.8,30.3,30.7,40.0,48.7,52.2,54.9,63.2,76.6,98.4,117.4,113.6,122.5,116.3,109.8,102.3,98.6,110.0,146.6,188.0,242.6,243.6,240.2,261.7,313.1,306.6,381.3,415.8,481.8,540.1,580.4,590.6,561.5,620.3,657.9,683.2,697.5
"inventories, finished goods",0.0,0.0,0.0,0.0,0.0,0.0,0.0,0.0,0.0,0.0,0.0,0.0,0.0,0.0,0.0,0.0,0.0,0.0,0.0,0.0,0.0,0.0,0.0,0.0,0.0,0.0,0.0,0.0,0.0,0.0,0.0,0.0,0.0,0.0,0.0,0.0,0.0,0.0,0.0,0.0,0.0,0.0,0.0,0.0,0.0,0.0,0.0,0.0,0.0,0.0,0.0,0.0,0.0,0.0,0.0,0.0,0.0,0.0,0.0,0.0,0.0,0.0,0.0,0.0,0.0,0.0,0.0,0.0,0.0,0.0,0.0,0.0,0.0,0.0,0.0,0.0,0.0
"inventories, other",0.0,0.0,0.0,0.0,0.0,0.0,0.0,0.0,0.0,0.0,0.0,0.0,0.0,0.0,0.0,0.0,0.0,0.0,0.0,0.0,0.0,0.0,0.0,0.0,0.0,0.0,0.0,0.0,20.3,20.4,21.6,18.9,18.3,17.1,18.1,18.9,18.3,19.0,20.8,21.9,23.8,30.3,30.7,40.0,48.7,52.2,54.9,63.2,76.6,98.4,117.4,113.6,122.5,116.3,109.8,102.3,98.6,110.0,146.6,188.0,242.6,243.6,240.2,261.7,313.1,306.6,381.3,415.8,481.8,540.1,580.4,590.6,561.5,620.3,657.9,683.2,697.5
"inventories, purchased components",0.0,0.0,0.0,0.0,0.0,0.0,0.0,0.0,0.0,0.0,0.0,0.0,0.0,0.0,0.0,0.0,0.0,0.0,0.0,0.0,0.0,0.0,0.0,0.0,0.0,0.0,0.0,0.0,0.0,0.0,0.0,0.0,0.0,0.0,0.0,0.0,0.0,0.0,0.0,0.0,0.0,0.0,0.0,0.0,0.0,0.0,0.0,0.0,0.0,0.0,0.0,0.0,0.0,0.0,0.0,0.0,0.0,0.0,0.0,0.0,0.0,0.0,0.0,0.0,0.0,0.0,0.0,0.0,0.0,0.0,0.0,0.0,0.0,0.0,0.0,0.0,0.0
"inventories, raw materials",0.0,0.0,0.0,0.0,0.0,0.0,0.0,0.0,0.0,0.0,0.0,0.0,0.0,0.0,0.0,0.0,0.0,0.0,0.0,0.0,0.0,0.0,0.0,0.0,0.0,0.0,0.0,0.0,0.0,0.0,0.0,0.0,0.0,0.0,0.0,0.0,0.0,0.0,0.0,0.0,0.0,0.0,0.0,0.0,0.0,0.0,0.0,0.0,0.0,0.0,0.0,0.0,0.0,0.0,0.0,0.0,0.0,0.0,0.0,0.0,0.0,0.0,0.0,0.0,0.0,0.0,0.0,0.0,0.0,0.0,0.0,0.0,0.0,0.0,0.0,0.0,0.0
"inventories, work in progress",0.0,0.0,0.0,0.0,0.0,0.0,0.0,0.0,0.0,0.0,0.0,0.0,0.0,0.0,0.0,0.0,0.0,0.0,0.0,0.0,0.0,0.0,0.0,0.0,0.0,0.0,0.0,0.0,0.0,0.0,0.0,0.0,0.0,0.0,0.0,0.0,0.0,0.0,0.0,0.0,0.0,0.0,0.0,0.0,0.0,0.0,0.0,0.0,0.0,0.0,0.0,0.0,0.0,0.0,0.0,0.0,0.0,0.0,0.0,0.0,0.0,0.0,0.0,0.0,0.0,0.0,0.0,0.0,0.0,0.0,0.0,0.0,0.0,0.0,0.0,0.0,0.0
inventory as % of revenue,0.0,2.8,3.1,2.5,2.8,2.5,1.8,1.8,2.1,2.4,2.8,2.8,3.7,4.1,4.3,4.1,4.3,4.3,4.3,5.1,5.3,4.8,2.7,2.3,1.9,1.7,1.4,1.1,1.1,1.0,1.1,1.2,1.6,1.8,2.0,1.7,1.3,1.3,1.3,1.2,1.4,1.6,1.5,1.7,2.0,1.9,1.8,1.8,2.0,2.5,3.0,3.2,3.5,3.2,2.9,2.5,2.1,2.0,2.3,2.9,4.1,4.9,5.8,5.5,6.3,5.6,6.3,6.8,7.3,6.9,6.3,5.8,5.1,5.5,5.7,6.1,5.8
inventory turnover,33.2,10.4,16.8,9.7,18.7,9.5,10.5,10.8,10.7,10.2,10.6,10.2,8.8,9.1,8.1,7.5,7.4,7.2,7.6,6.1,5.5,5.2,5.7,6.4,8.3,9.0,13.4,12.7,14.3,16.2,17.7,22.2,19.4,19.6,18.1,18.8,19.2,20.7,20.6,16.2,16.5,14.0,13.6,14.8,13.5,12.7,13.4,11.1,9.1,7.9,7.0,8.1,7.4,7.4,7.7,8.5,8.9,9.1,8.3,8.8,7.9,7.7,7.0,5.1,4.3,4.6,4.3,4.2,3.7,3.6,3.3,3.3,3.3,3.1,3.0,3.0,3.1
invested capital,"1,105.0","1,157.3","1,203.6","1,233.7","1,284.3","1,344.7","1,404.2","1,452.8","1,493.8","1,502.8","1,537.7","1,731.2","1,768.1","1,888.6","1,954.0","2,022.3","2,098.6","2,150.7","2,350.2","2,423.1","2,455.2","2,449.9","2,116.9","2,119.9","2,074.8","2,112.7","2,193.5","2,239.9","2,177.1","2,299.4","2,390.5","2,498.7","2,600.8","2,721.5","2,756.7","2,817.5","2,867.2","2,992.6","3,111.3","3,332.3","3,401.4","3,563.8","3,788.9","4,023.0","4,273.4","4,516.5","4,894.2","5,175.3","5,552.0","5,916.8","6,179.7","6,333.1","6,665.7","7,176.4","7,812.1","8,175.1","8,375.5","8,573.2","10,780.0","10,874.5","11,220.6","12,019.5","12,277.7","12,758.0","12,924.9","13,865.1","13,886.8","15,235.0","16,793.1","17,083.4","17,501.6","17,650.1","18,002.4","18,367.0","20,098.7","19,190.4","19,662.2"
issuance of capital stock,0.0,1.5,1.7,4.1,1.8,3.2,6.3,10.3,7.2,10.7,14.8,22.2,1.2,1.5,4.7,5.1,0.8,2.2,2.3,2.9,0.2,2.9,13.8,739.8,1.1,56.8,91.8,127.1,10.0,16.1,20.6,30.8,10.0,13.1,13.8,17.3,7.5,14.7,17.7,35.1,8.8,43.2,60.5,75.5,14.3,24.4,56.4,64.7,6.1,11.1,29.3,36.0,5.3,14.1,32.7,55.3,29.5,48.5,67.4,72.6,1.2,8.0,13.7,20.5,5.3,21.0,24.5,34.6,"1,405.6","1,412.9","1,415.2","1,424.2",20.2,33.0,59.7,82.9,8.0
issuance of debt,0.0,56.0,81.0,25.0,8.3,49.3,83.3,116.5,135.3,114.0,141.9,320.6,52.6,168.6,216.4,279.1,215.4,302.1,429.3,401.5,227.7,131.1,222.4,47.5,0.0,0.0,0.0,0.0,0.0,0.0,0.0,0.0,119.7,179.9,234.9,289.2,0.0,0.0,0.0,0.0,0.0,150.0,150.0,150.0,42.2,39.5,40.2,250.0,0.0,10.0,37.0,65.0,116.6,180.4,610.0,610.0,0.0,0.0,750.0,750.0,208.1,900.0,900.0,900.0,0.0,991.4,"1,025.1","2,478.7",0.0,0.0,0.0,0.0,0.0,0.0,"1,234.1","1,234.1",0.0
land and improvements,0.0,0.0,0.0,0.0,0.0,0.0,0.0,0.0,0.0,0.0,0.0,0.0,0.0,0.0,0.0,0.0,0.0,0.0,0.0,0.0,0.0,0.0,0.0,0.0,0.0,0.0,0.0,0.0,"5,251.4","5,529.9","5,851.1","6,065.6",0.0,"6,438.1","6,584.0","6,750.1","7,020.9","7,269.6","7,496.0","8,189.1","8,385.0",0.0,"9,069.6","9,599.3","9,934.0","10,193.8","10,719.5","11,173.4","11,742.4","12,446.5","13,188.9","13,893.9","14,793.5","15,890.8","16,955.4","16,981.8","17,865.0","18,929.9","20,216.2","20,803.6","21,460.2","22,292.1","23,515.4","24,614.3","25,725.2","26,647.2","28,208.6","29,263.8","30,526.4","31,588.9","32,196.3","33,664.4","35,092.3","35,562.4","37,021.2","38,126.3","39,075.0"
leverage ratio,1.9,1.8,1.8,1.8,1.9,1.8,1.9,1.8,1.8,1.8,1.8,1.9,2.0,2.0,2.0,2.1,2.1,2.1,2.3,2.4,2.3,2.3,2.7,2.7,2.7,2.6,2.6,2.4,2.2,2.1,2.2,2.3,2.4,2.3,2.4,2.5,2.4,2.3,2.3,2.3,2.3,2.2,2.1,2.0,2.0,1.9,1.9,1.8,1.8,1.7,1.7,1.7,1.7,1.7,1.7,1.7,1.8,1.9,1.8,1.8,1.8,1.8,1.8,1.8,1.8,1.9,2.0,2.1,2.0,2.0,2.0,2.0,2.0,1.9,2.0,2.1,2.1
loans receivable,0.0,0.0,0.0,0.0,0.0,0.0,0.0,0.0,0.0,0.0,0.0,0.0,0.0,0.0,0.0,0.0,0.0,0.0,0.0,0.0,0.0,0.0,0.0,0.0,0.0,0.0,0.0,0.0,0.0,0.0,0.0,0.0,0.0,0.0,0.0,0.0,0.0,0.0,0.0,0.0,0.0,0.0,0.0,0.0,0.0,0.0,0.0,0.0,0.0,0.0,0.0,0.0,0.0,0.0,0.0,0.0,0.0,0.0,0.0,0.0,0.0,0.0,0.0,0.0,0.0,0.0,0.0,0.0,0.0,0.0,0.0,0.0,0.0,0.0,0.0,0.0,0.0
long-term debt,153.0,176.0,183.9,190.3,198.2,213.9,263.9,289.1,318.4,288.6,300.7,466.1,518.1,633.6,678.6,741.3,799.2,850.9,"1,074.4","1,142.8","1,170.5","1,139.9","1,165.2",990.3,940.9,949.6,945.2,859.0,644.9,640.8,701.0,856.0,975.7,"1,035.8","1,090.9","1,145.1","1,044.2","1,010.8","1,010.8","1,108.9","1,085.8","1,085.8","1,063.0","1,077.6","1,119.8","1,117.1","1,042.8",859.0,808.7,768.4,705.4,733.4,820.0,883.8,"1,185.0","1,185.0","1,185.0","1,147.0","1,860.0","1,860.0","2,105.1","2,760.0","2,760.0","2,760.0","2,760.0","3,734.1","3,768.6","5,003.3","5,004.7","5,006.3","5,007.7","5,009.2","5,010.5","5,011.9","6,305.3","5,905.6","5,905.9"
long-term debt per share,0.96,1.10,1.15,0.63,0.62,0.67,0.83,0.90,1.00,0.90,0.94,1.46,1.64,2.01,2.16,2.39,2.58,2.66,3.49,3.72,3.81,3.70,4.89,4.16,4.01,4.07,4.05,3.67,2.77,2.98,3.03,3.71,4.21,4.46,4.72,4.99,4.56,4.40,4.39,4.78,4.67,4.61,4.49,4.53,4.68,4.66,4.32,3.55,3.33,3.17,2.90,3.01,3.35,3.61,4.82,4.81,4.78,4.61,7.45,7.45,8.41,11.02,10.94,10.93,10.91,14.74,14.85,19.69,18.65,18.64,18.63,18.62,18.59,18.58,23.28,21.74,21.71
marketable securities,0.0,0.0,0.0,0.0,0.0,0.0,0.0,0.0,0.0,0.0,0.0,0.0,0.0,0.0,0.0,0.0,0.0,0.0,0.0,0.0,0.0,0.0,0.0,0.0,0.0,0.0,0.0,0.0,0.0,0.0,0.0,0.0,0.0,0.0,0.0,0.0,0.0,0.0,0.0,0.0,0.0,0.0,0.0,0.0,0.0,0.0,0.0,0.0,0.0,0.0,0.0,0.0,0.0,0.0,0.0,0.0,0.0,0.0,0.0,0.0,0.0,0.0,0.0,0.0,0.0,0.0,0.0,0.0,0.0,0.0,0.0,0.0,0.0,0.0,0.0,0.0,0.0
minority interest,0.0,0.0,0.0,0.0,0.0,0.0,0.0,0.0,0.0,0.0,0.0,0.0,0.0,0.0,0.0,0.0,0.0,0.0,0.0,0.0,0.0,0.0,0.0,0.0,0.0,0.0,0.0,0.0,0.0,0.0,0.0,0.0,0.0,0.0,0.0,0.0,0.0,0.0,0.0,0.0,0.0,0.0,0.0,0.0,0.0,0.0,0.0,0.0,0.0,0.0,0.0,0.0,0.0,0.0,0.0,0.0,0.0,0.0,0.0,0.0,0.0,0.0,0.0,0.0,0.0,0.0,0.0,0.0,0.0,0.0,0.0,0.0,0.0,0.0,0.0,0.0,0.0
minority interest liability,0.0,0.0,0.0,0.0,0.0,0.0,19.0,0.0,0.0,0.0,0.0,0.0,0.0,0.0,0.0,0.0,0.0,0.0,0.0,0.0,0.0,0.0,0.0,0.0,0.0,0.0,0.0,0.0,0.0,0.0,0.0,0.0,0.0,0.0,0.0,0.0,0.0,0.0,0.0,0.0,0.0,0.0,0.0,0.0,0.0,0.0,0.0,0.0,0.0,0.0,0.0,0.0,0.0,0.0,0.0,0.0,0.0,0.0,0.0,0.0,0.0,0.0,0.0,0.0,0.0,0.0,0.0,0.0,0.0,0.0,0.0,0.0,0.0,0.0,0.0,0.0,0.0
net cash from continuing operations,103.8,219.5,333.3,425.9,96.6,169.6,229.2,335.4,87.3,184.3,284.6,365.1,135.3,242.8,348.5,530.9,111.9,193.9,319.0,403.6,69.1,155.1,278.5,442.1,174.8,327.6,612.3,967.4,479.2,820.8,"1,053.4","1,197.4",121.4,274.1,463.0,668.6,286.6,653.2,"1,014.5","1,320.3",397.3,692.1,"1,085.0","1,444.3",481.8,985.4,"1,504.2","2,369.4",786.8,"1,376.4","1,979.5","2,578.6",698.5,"1,421.7","2,145.9","2,893.4",921.6,"2,062.6","3,599.7","4,633.2",605.8,"1,277.2","2,093.7","2,922.4",620.3,"1,301.3","2,085.7","2,708.6",957.5,"2,069.2","3,341.5","4,578.4","1,077.6","2,573.2","4,009.6","5,236.8","1,424.9"
net cash from discontinued operations,0.0,0.0,0.0,0.0,0.0,0.0,0.0,0.0,0.0,0.0,0.0,0.0,0.0,0.0,0.0,0.0,0.0,0.0,0.0,0.0,0.0,0.0,0.0,0.0,0.0,0.0,0.0,0.0,0.0,0.0,0.0,0.0,0.0,0.0,0.0,0.0,0.0,0.0,0.0,0.0,0.0,0.0,0.0,0.0,0.0,0.0,0.0,0.0,0.0,0.0,0.0,0.0,0.0,0.0,0.0,0.0,0.0,0.0,0.0,0.0,0.0,0.0,0.0,0.0,0.0,0.0,0.0,0.0,0.0,0.0,0.0,0.0,0.0,0.0,0.0,0.0,0.0
net fixed assets,"1,556.8","1,573.7","1,637.8","1,684.8","1,727.8","1,775.5","1,843.2","1,881.4","1,881.6","1,881.8","1,958.7","2,099.6","2,165.0","2,237.2","2,306.2","2,387.2","2,401.8","2,459.8","2,665.3","2,676.4","2,681.3","2,666.8","2,324.3","2,334.9","2,294.8","2,291.9","2,443.4","2,525.0","2,569.5","2,744.5","2,961.2","3,055.9","3,125.1","3,227.3","3,282.8","3,321.5","3,482.0","3,594.9","3,703.8","4,248.9","4,336.3","4,467.0","4,758.0","5,101.6","5,287.2","5,455.0","5,780.4","6,087.2","6,472.8","6,934.0","7,454.2","7,944.0","8,580.8","9,339.9","10,034.2","10,429.3","11,144.6","11,988.7","13,132.4","13,657.3","14,006.5","14,445.7","15,252.6","16,139.2","16,816.9","17,424.3","18,249.8","18,680.9","19,641.5","19,996.8","20,736.2","21,288.8","22,133.8","22,689.7","23,686.5","23,337.7","23,938.0"
net income (continuing operations),30.3,34.2,41.0,42.6,29.6,48.1,33.0,31.4,25.9,47.6,31.4,35.1,23.1,24.6,31.2,43.2,27.0,13.3,5.9,10.0,5.1,20.6,512.9,30.5,41.5,77.5,116.5,161.4,215.2,136.2,72.0,-24.8,-24.2,38.1,28.9,44.4,136.6,108.8,117.4,74.5,100.9,144.9,172.3,206.8,202.7,249.5,343.8,463.7,426.7,331.4,299.1,242.6,217.7,307.1,204.0,361.2,241.0,178.2,"1,556.3",461.5,0.0,0.0,0.0,0.0,0.0,0.0,0.0,0.0,0.0,0.0,0.0,0.0,0.0,0.0,0.0,570.3,494.7
net income (discontinued operations),0.0,0.0,0.0,0.0,0.0,0.0,0.0,0.0,0.0,0.0,0.0,0.0,0.0,0.0,0.0,0.0,0.0,0.0,0.0,0.0,0.0,0.0,0.0,0.0,0.0,0.0,0.0,0.0,0.0,0.0,0.0,0.0,0.0,0.0,0.0,0.0,0.0,0.0,0.0,0.0,0.0,0.0,0.0,0.0,0.0,0.0,0.0,0.0,0.0,0.0,0.0,0.0,0.0,0.0,0.0,0.0,0.0,0.0,0.0,0.0,0.0,0.0,0.0,0.0,0.0,0.0,0.0,0.0,0.0,0.0,0.0,0.0,0.0,0.0,0.0,0.0,0.0
net income available for common,30.3,34.2,41.0,42.6,29.6,48.1,33.0,31.4,25.9,47.6,31.4,35.1,23.1,24.6,31.2,43.2,27.0,13.3,5.9,10.0,5.1,20.6,512.9,30.0,38.8,74.7,113.7,158.7,212.5,133.4,69.2,-27.6,-27.0,35.4,26.1,41.7,133.8,106.0,114.7,71.8,98.1,142.2,169.6,204.1,200.8,247.6,341.9,461.8,424.8,329.6,297.3,237.2,216.8,306.1,202.4,358.0,240.5,178.2,"1,556.3",461.5,0.0,0.0,0.0,0.0,0.0,0.0,0.0,0.0,0.0,0.0,0.0,0.0,0.0,0.0,0.0,570.3,494.7
net income/loss,30.3,64.5,105.4,148.0,29.6,77.8,110.7,142.1,25.9,73.5,104.9,140.0,23.1,47.6,78.8,122.0,27.0,40.3,46.2,56.2,5.1,25.7,538.6,569.1,41.5,119.0,235.5,396.9,215.2,351.5,423.4,398.6,-24.2,13.9,42.8,87.2,129.4,238.2,355.6,430.1,100.9,245.8,418.1,624.9,202.7,452.2,795.9,"1,259.6",426.7,758.1,"1,057.3","1,299.9",217.7,524.7,728.7,"1,089.9",241.0,419.2,"1,975.4","2,436.9",158.7,142.0,146.2,546.6,118.0,177.9,107.0,160.7,134.0,429.5,970.4,"1,091.1",324.0,719.8,"1,075.3",570.3,494.7
net profit margin,23.7,23.7,25.2,23.9,25.6,26.2,23.9,21.9,21.2,20.7,20.0,19.2,18.2,15.7,15.2,15.6,15.7,14.1,11.0,7.3,4.7,5.7,71.5,71.0,67.7,64.7,22.3,26.6,31.1,31.7,30.1,25.6,13.9,6.3,2.0,8.0,18.1,21.1,24.5,24.0,22.8,23.6,24.7,27.1,29.4,30.4,32.4,34.9,38.1,39.7,39.3,36.5,31.2,29.0,25.8,27.0,23.7,17.7,36.2,38.2,36.8,40.7,11.2,0.0,0.0,0.0,0.0,0.0,0.0,0.0,0.0,0.0,0.0,0.0,0.0,5.1,8.9
non-current deferred income taxes,0.0,0.0,0.0,0.0,0.0,0.0,0.0,0.0,0.0,0.0,0.0,0.0,0.0,0.0,0.0,0.0,0.0,0.0,0.0,0.0,0.0,0.0,0.0,0.0,0.0,0.0,0.0,0.0,0.0,0.0,0.0,0.0,0.0,0.0,0.0,0.0,0.0,0.0,0.0,0.0,0.0,0.0,0.0,0.0,0.0,0.0,0.0,0.0,0.0,0.0,0.0,0.0,0.0,0.0,0.0,0.0,0.0,0.0,0.0,0.0,0.0,0.0,0.0,0.0,0.0,0.0,0.0,0.0,0.0,0.0,0.0,0.0,0.0,0.0,0.0,0.0,0.0
normalized income,30.3,34.2,41.0,42.6,29.6,48.1,33.0,31.4,25.9,47.6,31.4,35.1,23.1,24.6,31.2,43.2,27.0,13.3,5.9,10.0,5.1,20.6,512.9,30.5,41.5,77.5,116.5,161.4,215.2,136.2,72.0,-5.6,-24.2,38.1,28.9,44.4,148.5,108.8,117.4,74.5,118.5,160.6,190.2,155.5,214.9,273.7,343.8,541.6,449.5,354.1,321.2,283.3,241.7,327.9,246.0,421.9,273.5,227.1,"1,588.4",540.7,65.5,47.0,69.4,123.9,69.6,80.4,352.9,239.8,89.3,358.7,83.4,499.6,133.1,54.2,62.9,"1,590.8",548.3
normalized income per employee,None,None,None,227692,None,None,None,218615,None,None,None,215385,None,None,None,147879,None,None,None,47227,None,None,None,753775,None,None,None,466978,None,None,None,435236,None,None,None,87173,None,None,None,397524,None,None,None,499884,None,None,None,955363,None,None,None,896906,None,None,None,687464,None,None,None,1252275,None,None,None,145634,None,None,None,324300,None,None,None,404328,None,None,None,694722,None
normalized net profit margin,23.7,23.7,25.2,23.9,25.6,26.2,23.9,21.9,21.2,20.7,20.0,19.2,18.2,15.7,15.2,15.6,15.7,14.1,11.0,7.3,4.7,5.7,71.5,71.0,67.7,64.7,22.3,26.6,31.1,31.7,30.1,26.8,15.6,8.3,4.2,8.0,18.9,21.9,25.2,24.0,23.8,25.4,27.3,27.1,29.2,30.5,31.9,37.1,41.3,42.8,43.0,39.5,34.3,31.9,29.2,30.6,27.0,21.0,38.9,41.2,40.6,45.2,17.5,6.4,6.2,6.2,10.3,12.2,11.5,13.3,8.4,10.2,9.7,6.8,6.6,16.3,18.9
notes payable,0.0,0.0,0.0,0.0,0.0,0.0,0.0,0.0,0.0,0.0,0.0,0.0,0.0,0.0,0.0,0.0,0.0,0.0,0.0,0.0,0.0,0.0,0.0,0.0,0.0,0.0,0.0,0.0,0.0,0.0,0.0,0.0,0.0,0.0,0.0,0.0,0.0,0.0,0.0,0.0,0.0,0.0,0.0,0.0,0.0,0.0,0.0,0.0,0.0,0.0,0.0,0.0,0.0,0.0,0.0,0.0,0.0,0.0,0.0,0.0,0.0,0.0,0.0,0.0,0.0,0.0,0.0,0.0,0.0,0.0,0.0,0.0,0.0,0.0,0.0,0.0,0.0
number of days cost of goods in inventory,11,35,21,37,19,38,34,33,34,35,34,35,41,40,44,48,48,50,47,59,66,69,64,56,43,40,27,28,25,22,20,16,19,18,20,19,19,17,17,22,22,26,26,24,27,28,27,33,40,46,51,44,49,49,47,42,41,39,43,41,46,47,52,71,83,79,84,86,97,101,108,108,108,115,119,121,117
number of employees,None,None,None,None,None,None,None,None,None,None,None,None,None,None,None,None,None,None,None,None,None,None,None,None,None,None,None,None,None,None,None,None,None,None,None,None,None,None,None,None,None,None,None,None,None,None,None,None,None,None,None,None,None,None,None,None,None,None,None,None,None,None,None,None,None,None,None,None,None,None,None,None,None,None,None,None,None
number of months last report period,3,3,3,3,3,3,3,3,3,3,3,3,3,3,3,3,3,3,3,3,3,3,3,3,3,3,3,3,3,3,3,3,3,3,3,3,3,3,3,3,3,3,3,3,3,3,3,3,3,3,3,3,3,3,3,3,3,3,3,3,3,3,3,3,3,3,3,3,3,3,3,3,3,3,3,3,3
number of part-time employees,None,None,None,None,None,None,None,None,None,None,None,None,None,None,None,None,None,None,None,None,None,None,None,None,None,None,None,None,None,None,None,None,None,None,None,None,None,None,None,None,None,None,None,None,None,None,None,None,None,None,None,None,None,None,None,None,None,None,None,None,None,None,None,None,None,None,None,None,None,None,None,None,None,None,None,None,None
operating gains,1.6,-18.9,6.0,31.7,14.5,-14.2,2.1,19.5,14.1,16.9,9.8,85.8,18.8,35.3,24.3,90.7,19.5,45.9,78.0,118.5,-8.9,-20.3,-556.4,-526.4,8.8,61.4,53.7,153.3,59.4,78.0,89.0,220.1,86.5,109.3,156.9,221.5,66.1,128.4,152.0,261.4,104.8,154.7,168.8,158.5,46.0,102.6,160.2,197.5,-34.6,-74.0,-95.5,-27.3,112.4,86.3,125.7,130.4,387.3,11.5,-399.3,-652.3,-37.4,307.4,620.8,361.6,38.2,36.4,-108.0,-205.9,42.9,-302.5,-792.5,-885.0,-68.1,-196.6,-6.5,533.8,11.7
operating income,0.0,0.0,0.0,0.0,0.0,0.0,0.0,0.0,0.0,0.0,0.0,0.0,0.0,0.0,0.0,0.0,0.0,0.0,0.0,0.0,0.0,0.0,0.0,0.0,0.0,0.0,0.0,0.0,354.0,234.2,123.9,-712.2,-20.7,69.6,61.7,70.7,226.1,176.9,193.3,101.0,171.4,226.7,274.5,306.5,320.1,0.0,522.2,754.9,628.4,454.8,461.8,350.4,337.0,447.6,324.9,519.8,380.7,243.1,"2,392.2",751.2,281.4,0.0,35.3,654.1,219.9,140.5,-11.7,174.6,272.5,588.3,950.0,302.6,559.8,692.3,605.7,-378.1,833.1
other current assets,23.2,8.3,8.2,8.7,10.4,8.7,8.6,14.6,8.7,20.2,16.8,20.2,17.9,17.0,15.5,8.6,7.8,8.4,7.9,6.9,7.3,6.4,27.9,8.7,6.7,11.1,30.6,15.1,21.0,51.7,97.0,56.4,57.0,45.4,90.7,55.9,99.7,79.0,77.9,35.0,34.3,57.1,72.3,52.6,43.0,54.4,88.6,69.4,139.1,143.6,213.2,169.8,77.7,107.4,127.1,155.9,52.7,54.1,386.8,839.4,911.8,670.4,351.6,83.6,86.3,117.5,138.3,145.3,160.3,213.0,490.6,569.8,618.4,643.9,474.8,344.5,257.8
other current liabilities,27.3,25.5,143.1,31.7,30.9,31.9,37.4,35.6,27.1,32.0,38.5,39.8,37.0,26.8,36.4,55.2,40.2,36.2,54.7,56.3,45.3,38.8,59.1,45.8,48.3,39.5,73.0,123.6,164.7,168.9,124.8,34.7,94.7,34.1,58.6,40.2,73.4,66.9,63.0,120.5,131.0,100.1,59.2,52.6,50.8,112.9,61.5,60.9,63.9,63.0,74.3,82.8,72.6,76.4,91.6,108.4,391.5,866.8,118.9,151.2,133.5,140.7,179.7,201.1,210.9,292.6,236.9,182.9,191.2,323.5,380.2,352.7,333.8,323.2,424.5,415.7,407.7
other equity adjustments,0.0,0.0,0.0,0.0,0.0,0.0,0.0,0.0,0.0,0.0,0.0,0.0,0.0,0.0,0.0,0.0,0.0,0.0,0.0,0.0,0.0,-4.2,-1.3,-1.6,-4.4,-4.3,-36.6,-35.5,-58.4,-52.2,-67.6,-70.1,-72.5,-47.8,-66.9,-64.9,-29.4,20.3,20.8,50.5,32.4,13.5,67.6,118.2,103.6,90.4,149.5,140.9,175.7,242.8,241.6,176.7,194.6,328.9,450.5,466.7,388.8,403.2,315.0,27.8,-21.7,130.5,291.6,339.7,405.2,314.6,375.8,440.1,485.5,492.9,372.4,401.7,429.5,400.1,451.4,439.9,427.8
"other financing charges, net",-0.4,0.0,0.0,1.1,0.0,-5.3,1.8,-0.5,-0.2,0.0,2.2,-7.5,0.3,1.1,-0.3,1.9,-0.1,-3.9,-4.0,-7.0,0.0,-0.3,-46.2,-628.1,0.7,0.8,-2.4,-1.9,-0.0,2.9,3.2,1.7,-0.0,-1.9,-2.2,-3.0,0.0,0.1,-2.1,-3.5,0.2,-2.2,-1.0,0.1,-0.0,0.1,-1.5,-1.4,7.1,20.6,26.7,27.4,7.1,10.9,12.7,22.1,35.1,50.3,63.2,-1.0,4.6,13.1,24.9,66.9,0.3,0.3,-6.3,0.0,-1.8,0.2,0.3,-4.5,16.2,21.8,47.6,65.2,11.9
other fixed assets,0.0,0.0,0.0,0.0,0.0,0.0,0.0,0.0,0.0,0.0,0.0,0.0,0.0,0.0,0.0,0.0,0.0,0.0,0.0,0.0,0.0,0.0,0.0,0.0,0.0,0.0,0.0,0.0,0.0,0.0,0.0,0.0,"6,224.0",0.0,0.0,0.0,0.0,0.0,0.0,0.0,0.0,"8,616.1",0.0,0.0,0.0,0.0,0.0,0.0,0.0,0.0,0.0,0.0,0.0,0.0,0.0,581.4,668.2,776.9,901.2,"1,057.9","1,086.1","1,172.5","1,261.5","1,350.1","1,417.7","1,490.1","1,598.5","1,733.1","1,863.1","1,871.5","1,993.8","2,150.0","2,277.0",0.0,0.0,"2,740.6","2,769.6"
other gains/losses,0.0,0.0,0.0,0.0,0.0,0.0,0.0,0.0,0.0,0.0,0.0,0.0,0.0,0.0,0.0,0.0,0.0,0.0,0.0,0.0,0.0,0.0,0.0,0.0,0.0,0.0,0.0,0.0,0.0,0.0,0.0,0.0,0.0,0.0,0.0,0.0,0.0,0.0,0.0,0.0,0.0,0.0,0.0,0.0,0.0,0.0,0.0,0.0,0.0,0.0,0.0,0.0,0.0,0.0,0.0,0.0,0.0,0.0,0.0,0.0,0.0,0.0,0.0,0.0,0.0,0.0,0.0,0.0,0.0,0.0,0.0,0.0,0.0,0.0,0.0,0.0,0.0
other income net,8.3,12.3,33.8,-46.1,-0.6,0.5,-1.0,1.8,-0.5,0.0,-1.4,-3.0,1.3,1.0,0.2,-4.0,-1.0,-0.1,-1.6,-2.2,26.9,31.4,554.5,-1.5,0.6,0.8,0.0,-3.1,-0.6,1.3,1.3,98.8,-3.1,0.1,-0.1,1.1,0.4,2.7,27.9,-121.0,-1.8,1.4,26.7,-70.6,5.5,6.9,11.6,23.5,121.6,112.9,119.9,41.8,-29.4,75.2,54.2,81.5,-468.3,-819.5,"1,395.6",673.8,1.7,1.2,-0.3,-0.6,2.7,-0.5,5.8,6.3,3.6,6.2,1.4,-4.4,10.6,4.7,7.6,385.3,-115.1
"other investing changes, net",-26.0,-34.3,-53.4,-143.2,-24.2,-52.5,-36.9,-48.3,-33.2,31.0,39.3,-36.2,-21.4,-49.4,-49.8,-108.5,-48.7,-9.6,-31.1,-131.1,-33.9,39.1,52.8,-54.4,-24.3,-31.1,-25.7,-90.7,-34.0,-64.7,-49.7,-122.1,-70.2,-96.8,-117.1,-166.5,-34.7,-41.5,-124.5,-77.6,-58.9,-103.8,-114.6,6.3,-33.1,-36.1,-11.4,-24.3,28.0,-4.5,45.6,88.8,6.8,-11.7,5.3,140.0,-6.0,-19.8,-15.8,-154.6,-138.0,-167.7,-145.4,-5.3,81.4,131.5,212.3,216.0,-0.2,-76.9,-133.5,-237.3,224.1,"1,209.3","1,125.9",-73.9,57.1
other non-cash items,7.1,52.8,0.0,31.0,-3.0,2.6,0.0,-80.0,17.5,-25.7,-30.7,-75.0,1.4,29.5,26.3,-25.2,20.2,14.7,12.0,-12.9,17.0,0.0,0.0,-10.0,23.2,0.0,0.0,-25.1,-7.8,-10.7,-43.5,-3.1,-13.9,44.5,35.0,-5.6,-4.0,0.0,-22.1,-14.4,2.8,0.0,-17.9,-2.7,-6.5,19.8,-1.9,1.4,-33.2,57.6,106.0,148.1,38.3,69.5,133.6,71.2,52.4,"1,209.0",189.9,290.4,94.2,338.7,268.6,469.0,19.7,58.5,378.9,866.8,125.5,590.5,783.0,"1,201.0",-75.0,238.3,304.6,952.8,85.6
other non-current assets,17.4,13.9,10.9,20.6,75.5,72.7,75.3,47.9,44.9,40.7,34.8,32.9,31.6,28.7,28.5,54.1,53.1,58.0,60.9,95.4,81.3,69.9,70.6,75.4,84.2,94.1,98.0,81.4,83.8,81.6,88.9,85.7,88.2,86.3,96.8,97.7,93.4,92.7,164.3,104.1,114.9,109.5,108.9,110.5,97.8,106.1,102.1,102.9,105.8,109.4,127.8,108.0,117.9,120.6,123.3,367.6,115.8,148.0,223.8,185.5,167.4,136.8,137.0,139.9,146.3,125.2,160.6,415.9,306.5,324.6,323.1,296.0,379.7,360.8,345.9,409.0,213.6
other non-current liabilities,226.7,214.4,208.6,194.2,279.1,256.3,238.0,217.1,219.1,194.1,166.6,100.9,122.0,113.2,107.3,122.3,108.6,81.6,69.0,72.0,56.9,47.2,34.7,46.3,62.1,66.6,64.5,51.1,56.5,60.0,56.2,53.5,53.8,52.0,53.8,59.2,150.9,158.1,163.9,171.1,180.7,180.7,195.5,241.3,252.0,248.1,271.4,283.4,289.9,296.4,310.1,300.9,315.1,328.1,353.3,368.3,462.9,661.4,512.0,498.3,514.1,550.3,609.2,632.7,635.2,618.7,695.9,667.5,680.8,718.7,768.5,799.2,790.4,791.3,842.2,894.8,864.0
other receivable,0.0,0.0,0.0,0.0,0.0,0.0,0.0,0.0,0.0,0.0,0.0,0.0,0.0,0.0,0.0,0.0,0.0,0.0,0.0,0.0,0.0,0.0,0.0,0.0,0.0,0.0,0.0,0.0,0.0,0.0,0.0,0.0,0.0,0.0,0.0,50.8,0.0,0.0,0.0,8.0,0.0,0.0,0.0,3.2,0.0,0.0,0.0,0.3,0.0,0.0,0.0,94.3,42.2,39.7,92.6,110.4,133.0,239.4,8.8,27.1,5.2,19.1,27.1,37.0,42.2,30.7,89.4,54.9,30.5,27.7,28.0,26.6,24.6,28.4,54.0,29.2,24.4
other special charges,0.0,0.0,0.0,0.0,0.0,0.0,0.0,0.0,0.0,0.0,0.0,0.0,0.0,0.0,0.0,0.0,0.0,0.0,0.0,0.0,0.0,0.0,0.0,0.0,0.0,0.0,0.0,0.0,0.0,0.0,0.0,-19.2,0.0,0.0,0.0,0.0,-12.0,0.0,0.0,0.0,-17.6,-15.7,-17.9,51.3,-12.2,-24.2,0.0,-77.9,-22.8,-22.7,-22.1,-40.7,-24.0,-20.8,-42.0,-60.7,-32.6,-48.9,-32.1,-79.3,-65.5,-47.0,-69.4,-123.9,-69.6,-80.4,-352.9,-239.8,-89.3,-358.7,-83.4,-499.6,-133.1,-54.2,-62.9,"-1,020.5",-53.5
payment of cash dividends,-4.8,-9.6,-14.4,-19.2,-4.8,-9.6,-14.4,-19.2,-4.8,-9.6,-14.4,-19.2,-4.8,-9.5,-14.2,-18.9,-4.6,-9.3,0.0,-18.5,-4.6,-9.2,-13.8,-17.4,-6.3,-12.5,-19.3,-26.1,-6.7,-14.0,-21.3,-28.6,-7.3,-14.6,-21.9,-29.2,-7.2,-14.5,-22.9,-31.3,-8.5,-18.1,-27.8,-37.6,-8.9,-20.2,-31.6,-43.0,-11.4,-27.7,-44.0,-60.4,-15.5,-38.4,-61.3,-84.0,-22.1,-51.6,-81.5,-115.2,-33.5,-69.5,-106.0,-142.3,-36.3,-75.2,-114.3,-153.2,-39.0,-81.6,-124.1,-167.2,-43.3,-88.9,-134.4,-181.1,-46.2
payout ratio,14,14,13,13,17,15,16,14,13,13,14,11,19,22,22,15,20,21,27,33,67,57,3,3,3,2,6,4,3,3,3,5,9,27,150,19,8,6,5,5,6,6,5,4,4,4,3,3,3,3,3,4,5,6,8,8,8,10,5,5,5,6,23,26,29,26,30,97,90,40,16,15,13,13,15,32,25
post-tax profit margin,23.7,23.7,25.2,23.9,25.6,26.2,23.9,21.9,21.2,20.7,20.0,19.2,18.2,15.7,15.2,15.6,15.7,14.1,11.0,7.3,4.7,5.7,71.5,71.0,67.7,64.7,22.3,26.6,31.1,31.7,30.1,25.6,13.9,6.3,2.0,8.0,18.1,21.1,24.5,24.0,22.8,23.6,24.7,27.1,29.4,30.4,32.4,34.9,38.1,39.7,39.3,36.5,31.2,29.0,25.8,27.0,23.7,17.7,36.2,38.2,36.8,40.7,11.2,0.0,0.0,0.0,0.0,0.0,0.0,0.0,0.0,0.0,0.0,0.0,0.0,5.1,8.9
pre-tax profit margin,21.0,22.1,24.9,24.8,18.4,22.8,19.3,28.4,26.4,25.7,26.6,26.1,26.7,21.3,20.3,20.9,19.2,18.7,14.2,7.8,4.8,6.2,68.4,70.8,66.2,66.9,32.7,42.5,49.5,50.8,48.0,40.6,22.3,8.9,1.6,10.9,26.7,31.6,37.0,35.9,33.8,34.6,36.4,40.2,44.0,46.1,49.0,54.5,58.6,59.9,59.6,53.7,46.2,44.0,39.1,40.4,35.4,26.1,54.6,58.7,61.1,68.0,23.8,18.2,16.1,17.1,14.7,6.7,6.6,11.1,19.8,18.9,20.0,20.3,17.2,11.3,12.7
pref. securities of subsid. trust,0.0,0.0,0.0,0.0,0.0,0.0,0.0,0.0,0.0,0.0,0.0,0.0,0.0,0.0,0.0,0.0,0.0,0.0,0.0,0.0,0.0,0.0,0.0,0.0,0.0,0.0,0.0,0.0,0.0,0.0,0.0,0.0,0.0,0.0,0.0,0.0,0.0,0.0,0.0,0.0,0.0,0.0,0.0,0.0,0.0,0.0,0.0,0.0,0.0,0.0,0.0,0.0,0.0,0.0,0.0,0.0,0.0,0.0,0.0,0.0,0.0,0.0,0.0,0.0,0.0,0.0,0.0,0.0,0.0,0.0,0.0,0.0,0.0,0.0,0.0,0.0,0.0
preferred dividends,0.0,0.0,0.0,0.0,0.0,0.0,0.0,0.0,0.0,0.0,0.0,0.0,0.0,0.0,0.0,0.0,0.0,0.0,0.0,0.0,0.0,0.0,0.0,0.5,2.7,2.9,2.8,2.8,2.7,2.8,2.8,2.8,2.8,2.8,2.8,2.8,2.8,2.8,2.8,2.8,2.8,2.8,2.8,2.6,1.9,1.9,1.9,1.9,1.9,1.9,1.9,5.4,0.9,1.0,1.6,3.2,0.4,0.0,0.0,0.0,0.0,0.0,0.0,0.0,0.0,0.0,0.0,0.0,0.0,0.0,0.0,0.0,0.0,0.0,0.0,0.0,0.0
preferred equity outside stock equity,0.0,0.0,0.0,0.0,0.0,0.0,0.0,0.0,0.0,0.0,0.0,0.0,0.0,0.0,0.0,0.0,0.0,0.0,0.0,0.0,0.0,0.0,0.0,0.0,0.0,0.0,0.0,0.0,0.0,0.0,0.0,0.0,0.0,0.0,0.0,0.0,0.0,0.0,0.0,0.0,0.0,0.0,0.0,0.0,0.0,0.0,0.0,0.0,0.0,0.0,0.0,0.0,0.0,0.0,0.0,0.0,0.0,0.0,0.0,0.0,0.0,0.0,0.0,0.0,0.0,0.0,0.0,0.0,0.0,0.0,0.0,0.0,0.0,0.0,0.0,0.0,0.0
preferred secur. of subsid. trust,0.0,0.0,0.0,0.0,0.0,0.0,0.0,0.0,0.0,0.0,0.0,0.0,0.0,0.0,0.0,0.0,0.0,0.0,0.0,0.0,0.0,0.0,0.0,0.0,0.0,0.0,0.0,0.0,0.0,0.0,0.0,0.0,0.0,0.0,0.0,0.0,0.0,0.0,0.0,0.0,0.0,0.0,0.0,0.0,0.0,0.0,0.0,0.0,0.0,0.0,0.0,0.0,0.0,0.0,0.0,0.0,0.0,0.0,0.0,0.0,0.0,0.0,0.0,0.0,0.0,0.0,0.0,0.0,0.0,0.0,0.0,0.0,0.0,0.0,0.0,0.0,0.0
preferred shares,0.0,0.0,0.0,0.0,0.0,0.0,0.0,0.0,0.0,0.0,0.0,0.0,0.0,0.0,0.0,0.0,0.0,0.0,0.0,0.0,0.0,0.0,0.0,0.1,0.1,0.0,0.0,0.1,0.1,0.1,0.1,0.1,0.1,0.1,0.1,0.1,0.1,0.1,0.1,0.1,0.1,0.1,0.1,0.1,0.1,0.1,0.1,0.1,0.1,0.1,0.1,0.1,0.1,0.1,0.0,0.0,0.0,0.0,0.0,0.0,0.0,0.0,0.0,0.0,0.0,0.0,0.0,0.0,0.0,0.0,0.0,0.0,0.0,0.0,0.0,0.0,0.0
preferred stock equity,0.0,0.0,0.0,0.0,19.0,19.0,0.0,0.0,0.0,0.0,0.0,0.0,0.0,0.0,0.0,0.0,0.0,0.0,0.0,0.0,0.0,0.0,0.0,147.2,147.1,147.2,147.1,147.2,147.3,147.4,147.5,147.6,147.7,147.8,147.9,148.0,148.1,148.2,148.3,148.4,148.5,148.6,148.7,98.8,98.9,98.9,99.0,99.1,99.1,99.2,99.2,52.9,52.9,53.0,43.0,5.0,0.0,0.0,0.0,0.0,0.0,0.0,0.0,0.0,0.0,0.0,0.0,0.0,0.0,0.0,0.0,0.0,0.0,0.0,0.0,0.0,0.0
prepaid expenses,0.0,0.0,0.0,0.0,0.0,0.0,0.0,0.0,0.0,0.0,0.0,0.0,0.0,0.0,0.0,0.0,0.0,0.0,0.0,0.0,0.0,0.0,0.0,0.0,0.0,0.0,0.0,0.0,0.0,0.0,0.0,0.0,0.0,0.0,0.0,0.0,0.0,0.0,0.0,0.0,0.0,0.0,0.0,0.0,0.0,0.0,0.0,0.0,0.0,0.0,0.0,0.0,0.0,0.0,0.0,0.0,0.0,0.0,0.0,0.0,0.0,0.0,0.0,0.0,0.0,0.0,0.0,0.0,0.0,0.0,0.0,0.0,0.0,0.0,0.0,0.0,0.0
price/cash flow ratio,8.7,9.3,8.3,7.3,10.4,9.2,9.4,10.7,11.9,12.2,10.9,10.3,8.7,8.1,9.6,8.2,9.0,8.4,7.5,7.1,6.9,7.7,2.4,2.0,2.3,3.5,7.4,8.5,5.1,3.8,3.4,5.8,8.7,10.4,10.5,9.6,7.0,6.6,5.8,6.2,6.3,7.9,8.1,7.6,9.2,9.7,11.2,9.3,8.1,7.4,7.0,7.2,8.9,8.9,9.0,10.2,13.4,15.2,6.2,4.4,3.8,4.9,10.6,15.8,14.8,14.8,13.1,12.0,15.3,12.7,8.1,10.5,11.1,8.4,9.9,8.8,8.0
price/equity ratio,3.59,3.75,3.19,2.71,3.69,3.13,3.05,3.30,3.59,3.67,3.21,3.19,2.63,2.27,2.74,2.57,2.73,2.49,2.11,2.07,1.99,2.38,2.66,2.13,2.52,3.84,4.12,5.18,3.46,2.53,2.17,3.02,3.18,3.00,2.74,3.01,2.71,2.62,2.46,2.58,2.46,3.02,3.02,2.98,3.81,4.13,4.82,4.21,3.76,3.33,2.95,2.74,3.01,2.87,2.70,3.15,4.14,4.40,2.50,1.84,1.50,1.84,2.21,2.46,2.31,2.46,2.33,2.27,2.70,2.32,1.53,2.10,2.31,1.82,2.20,2.47,2.53
price/free cash flow ratio,305.4,153.3,-92.6,-78.1,-1231.3,-77.7,-26.5,-30.0,329.7,-1393.8,-77.7,-20.7,-518.8,-45.3,-30.9,-28.6,-382.3,-37.5,-10.3,-8.7,-92.4,-92.0,-81.7,97.6,27.9,28.9,26.6,18.9,15.9,9.9,12.1,23.3,-81.1,-49.6,-41.8,-60.5,32.4,15.3,11.3,62.4,33.7,50.6,47.0,-892.0,106.0,66.8,72.7,29.5,93.5,106.7,-929.3,-50.4,-93.9,-49.0,-31.9,-25.3,-120.0,-98.6,-66.8,-24.6,-43.5,-45.0,-40.5,-34.0,-43.4,-21.2,-11.8,-7.2,-41.3,-19.0,-9.8,-10.4,-29.5,-15.4,-15.7,-14.3,-109.5
price/revenue ratio,5.86,6.28,5.69,4.55,6.84,5.63,5.41,5.91,6.46,6.70,5.81,5.51,4.36,3.92,4.65,4.19,4.43,3.99,3.31,3.45,3.51,4.25,3.30,2.61,2.78,3.82,3.81,4.29,2.61,1.93,1.72,2.90,4.11,4.76,4.63,4.18,3.30,3.19,2.89,2.94,3.03,3.79,3.91,3.69,4.72,4.99,5.85,4.92,4.48,4.27,4.09,4.27,4.98,4.86,4.72,5.45,6.34,5.88,3.46,2.60,2.30,3.43,5.10,5.13,4.70,4.54,3.89,3.81,4.80,3.58,2.09,2.62,2.71,2.14,2.65,2.91,2.92
price/tangible book ratio,3.59,3.75,3.19,2.71,3.69,3.13,3.05,3.30,3.59,3.67,3.21,3.19,2.63,2.27,2.74,2.57,2.73,2.49,2.11,2.07,1.99,2.38,2.66,2.13,2.52,3.84,4.12,5.18,3.46,2.53,2.17,3.02,3.18,3.00,2.74,3.01,2.71,2.62,2.46,2.58,2.46,3.02,3.02,2.98,3.81,4.13,4.82,4.21,3.76,3.33,2.95,2.74,3.01,2.87,2.70,3.15,4.14,4.40,2.50,1.84,1.50,1.84,2.21,2.46,2.31,2.46,2.33,2.27,2.70,2.32,1.53,2.10,2.31,1.82,2.20,2.47,2.53
purchase of  short-term investments,0.0,0.0,0.0,0.0,0.0,0.0,0.0,0.0,0.0,0.0,0.0,0.0,0.0,0.0,0.0,0.0,0.0,0.0,0.0,0.0,0.0,0.0,0.0,0.0,0.0,0.0,0.0,0.0,0.0,0.0,0.0,0.0,0.0,0.0,0.0,0.0,0.0,0.0,0.0,0.0,0.0,0.0,0.0,0.0,0.0,0.0,0.0,0.0,0.0,0.0,0.0,0.0,0.0,0.0,0.0,0.0,0.0,0.0,0.0,0.0,0.0,0.0,0.0,0.0,0.0,0.0,0.0,0.0,0.0,0.0,0.0,0.0,0.0,0.0,0.0,0.0,0.0
purchase of long-term investments,0.0,0.0,0.0,0.0,0.0,0.0,0.0,0.0,0.0,0.0,0.0,0.0,0.0,0.0,0.0,0.0,0.0,0.0,0.0,0.0,0.0,0.0,0.0,0.0,0.0,0.0,0.0,0.0,0.0,0.0,0.0,0.0,0.0,0.0,0.0,0.0,0.0,0.0,0.0,0.0,0.0,0.0,0.0,0.0,0.0,0.0,0.0,0.0,0.0,0.0,0.0,0.0,0.0,0.0,0.0,0.0,0.0,0.0,0.0,0.0,0.0,0.0,0.0,-118.2,0.0,0.0,0.0,0.0,0.0,0.0,0.0,0.0,0.0,0.0,0.0,0.0,0.0
quarterly indicator,1,2,3,4,1,2,3,4,1,2,3,4,1,2,3,4,1,2,3,4,1,2,3,4,1,2,3,4,1,2,3,4,1,2,3,4,1,2,3,4,1,2,3,4,1,2,3,4,1,2,3,4,1,2,3,4,1,2,3,4,1,2,3,4,1,2,3,4,1,2,3,4,1,2,3,4,1
quick ratio,1.0,1.2,1.2,0.8,1.1,1.2,1.1,1.1,1.5,1.3,0.9,0.9,0.9,1.0,1.0,0.8,1.0,0.8,0.7,0.8,0.8,0.9,0.7,0.8,0.9,1.1,1.0,1.0,0.8,0.8,0.6,0.6,0.7,0.9,0.8,1.2,1.1,1.4,1.3,0.6,0.8,0.8,0.8,0.7,1.1,1.2,1.3,1.2,1.4,1.3,1.0,0.8,0.8,0.7,0.8,0.7,0.8,0.6,1.1,0.6,0.5,1.1,1.0,1.1,0.8,1.0,0.5,0.9,1.2,1.2,1.0,0.8,0.7,0.6,1.1,0.9,1.0
receivables,117.1,105.7,94.3,126.2,146.2,154.2,162.8,168.5,180.8,193.6,185.8,277.3,224.2,207.1,223.4,232.1,236.7,188.4,183.1,193.6,168.8,172.3,135.2,148.2,180.0,225.6,267.2,342.6,286.8,244.2,206.3,194.6,185.5,204.3,196.8,310.1,370.4,303.8,274.8,303.1,303.6,355.7,350.2,451.0,441.2,450.6,631.3,762.5,627.7,597.6,656.5,848.4,776.4,781.6,771.3,946.0,"1,143.0","1,468.0","1,057.2",749.7,563.3,589.3,631.4,808.4,911.3,840.8,987.1,"1,168.2","1,259.1","1,307.4","1,277.7","1,477.8","1,568.1","1,403.5","1,633.9","1,685.8","1,915.6"
receivables as % of revenue,20.1,18.1,16.5,20.3,25.4,25.0,25.4,26.0,27.7,29.1,27.2,38.0,29.8,28.5,29.8,29.6,29.5,23.1,22.5,25.2,23.2,23.5,17.6,18.5,20.1,22.0,22.5,23.0,15.6,12.3,10.6,12.5,16.2,21.1,22.0,28.3,27.0,20.2,16.6,16.6,17.2,19.2,17.6,19.6,17.9,16.5,20.4,21.1,16.1,15.2,17.0,23.8,22.2,21.2,20.5,23.4,24.3,26.4,16.4,11.7,9.4,11.9,15.3,16.9,18.2,15.3,16.3,19.2,19.0,16.7,14.0,14.6,14.2,12.3,14.3,14.9,16.0
receivables per day sales,72.30,65.04,59.41,73.25,91.53,90.04,91.28,93.51,99.77,104.73,97.98,136.64,107.29,102.55,107.25,106.64,106.16,83.30,81.14,90.61,83.43,84.70,63.39,66.57,72.47,79.37,80.83,82.78,56.27,44.30,38.18,45.02,58.31,75.85,79.10,101.96,97.12,72.57,59.60,59.94,62.10,69.06,63.26,70.52,64.33,59.34,73.43,76.10,57.97,54.57,61.05,85.68,79.83,76.40,73.80,84.33,87.57,95.14,59.00,42.26,34.00,42.78,55.05,60.80,65.62,55.07,58.53,68.94,68.41,60.05,50.31,52.54,51.15,44.42,51.40,53.76,57.74
receivables turnover,5.1,5.5,6.0,4.9,4.4,4.7,5.0,4.4,4.0,3.8,3.9,3.3,3.7,3.6,3.7,3.1,3.5,4.1,4.0,3.6,3.6,4.1,4.8,4.7,5.1,5.1,5.9,6.1,7.9,8.4,8.2,5.8,4.9,4.3,4.4,4.3,4.9,5.9,7.0,5.9,5.2,5.6,6.4,6.1,6.6,6.8,6.3,5.9,7.3,7.5,6.0,4.4,5.0,5.3,5.3,4.5,4.9,4.9,7.1,7.5,7.0,4.8,4.9,6.1,6.8,7.7,7.5,6.2,6.1,7.3,8.1,7.7,7.8,8.4,7.9,7.1,6.9
repayment of long-term debt,-30.0,-63.0,-88.0,-25.3,-4.2,-25.0,-8.7,-16.1,-105.5,-113.5,-128.8,-141.5,0.0,0.0,0.0,0.0,-157.5,-192.5,-110.1,0.0,-200.0,-134.0,-200.0,-200.0,-49.4,-40.8,-45.1,-131.3,-214.1,-218.2,-158.0,-4.2,0.0,0.0,0.0,0.0,-100.9,-134.3,-134.3,-36.3,-23.1,-173.1,-195.9,-181.3,0.0,0.0,-75.0,-342.6,-52.3,-102.6,-192.6,-316.6,-30.0,-30.0,-60.0,-158.4,0.0,-38.0,-38.0,-38.0,0.0,0.0,0.0,0.0,0.0,-38.2,-37.0,-45.3,0.0,0.0,0.0,-220.0,0.0,0.0,-1.4,-2.8,-1.4
repurchase of capital stock,0.0,-2.2,-4.8,-14.1,-3.7,-6.7,-13.2,-17.9,-17.0,-24.5,-33.0,-43.5,-34.1,-49.2,-58.4,-99.3,-7.2,-8.0,-25.3,-25.9,0.0,0.0,0.0,-2.1,-30.3,-134.3,-196.9,-272.7,-55.6,-80.1,-103.0,-126.8,0.0,0.0,-24.3,-63.0,-21.3,-21.3,-21.3,-21.3,0.0,0.0,0.0,-50.0,0.0,0.0,0.0,0.0,0.0,0.0,0.0,-50.2,0.0,0.0,-10.6,-51.2,-5.4,-6.9,-16.7,-23.2,-4.9,-6.1,-9.9,-11.0,-5.3,-7.3,-10.3,-11.3,-15.0,-16.7,-21.4,-23.9,-20.1,-22.7,-44.8,-58.6,-11.0
restricted cash,0.0,0.0,0.0,0.0,0.0,0.0,0.0,0.0,0.0,0.0,0.0,0.0,0.0,0.0,0.0,0.0,0.0,0.0,0.0,0.0,0.0,0.0,0.0,0.0,0.0,0.0,0.0,0.0,0.0,0.0,0.0,0.0,0.0,0.0,0.0,0.0,0.0,0.0,0.0,0.0,0.0,0.0,0.0,0.0,0.0,0.0,0.0,0.0,0.0,0.0,0.0,0.0,0.0,0.0,0.0,0.0,0.0,0.0,0.0,0.0,0.0,0.0,0.0,0.0,0.0,0.0,0.0,0.0,0.0,0.0,0.0,0.0,0.0,0.0,0.0,0.0,0.0
retained earnings,325.0,379.9,416.0,453.8,478.6,522.0,550.1,576.7,597.9,640.6,667.2,697.6,715.9,735.7,762.2,800.7,823.1,831.7,833.0,838.4,838.8,854.8,904.9,930.9,965.7,"1,036.7","1,146.4","1,301.1","1,509.0","1,637.8","1,702.3","1,668.7","1,636.1","1,665.9","1,687.4","1,723.9","1,846.0","1,946.3","2,055.2","2,121.2","2,212.3","2,347.4","2,509.9","2,706.8","2,898.1","3,136.1","3,468.4","3,920.5","4,330.8","4,645.8","4,928.5","5,151.0","5,356.6","5,640.7","5,820.9","6,156.7","6,367.5","6,515.8","8,038.5","8,466.1","8,588.7","8,535.6","8,502.9","8,866.7","8,945.6","8,966.2","8,855.9","8,870.2","8,963.5","9,213.4","9,711.2","9,789.3","10,067.5","10,417.4","10,726.8","10,175.6","10,619.4"
revenue per $  plant (net),0.37,0.37,0.35,0.37,0.33,0.35,0.35,0.34,0.35,0.35,0.35,0.35,0.35,0.32,0.33,0.33,0.33,0.33,0.30,0.29,0.27,0.27,0.33,0.34,0.39,0.45,0.49,0.59,0.71,0.72,0.66,0.51,0.37,0.30,0.27,0.33,0.39,0.42,0.45,0.43,0.41,0.42,0.42,0.45,0.47,0.50,0.54,0.59,0.60,0.57,0.52,0.45,0.41,0.39,0.37,0.39,0.42,0.46,0.49,0.47,0.43,0.34,0.27,0.30,0.30,0.32,0.33,0.33,0.34,0.39,0.44,0.48,0.50,0.50,0.48,0.48,0.50
revenue per $ cash,10.19,6.83,6.58,106.93,37.58,30.22,75.54,28.20,24.62,17.47,70.38,96.13,208.97,44.06,122.93,84.25,157.39,59.87,88.30,122.10,55.60,64.24,40.84,32.31,26.81,87.35,71.24,73.93,59.47,29.06,171.46,619.51,212.00,105.36,115.09,111.19,200.92,9.98,9.00,409.72,18.39,27.33,24.33,109.74,14.24,9.67,9.07,5.60,4.75,5.19,6.50,16.33,24.71,62.92,12.46,74.47,22.93,51.39,7.28,19.28,69.99,7.02,6.78,6.98,21.73,8.45,218.15,7.73,3.97,4.97,6.59,16.45,37.53,40.57,10.29,12.88,10.78
revenue per $ common equity,0.61,0.60,0.56,0.59,0.54,0.55,0.56,0.56,0.56,0.55,0.55,0.58,0.60,0.58,0.59,0.61,0.62,0.63,0.64,0.60,0.57,0.56,0.81,0.82,0.91,1.01,1.08,1.21,1.32,1.31,1.26,1.04,0.78,0.63,0.59,0.72,0.82,0.82,0.85,0.88,0.81,0.80,0.77,0.81,0.81,0.83,0.82,0.86,0.84,0.78,0.72,0.64,0.60,0.59,0.57,0.58,0.65,0.75,0.72,0.71,0.65,0.54,0.43,0.48,0.49,0.54,0.60,0.60,0.56,0.65,0.73,0.80,0.85,0.85,0.83,0.85,0.87
revenue per $ invested capital,0.53,0.51,0.47,0.50,0.45,0.46,0.46,0.45,0.44,0.44,0.44,0.42,0.43,0.38,0.38,0.39,0.38,0.38,0.35,0.32,0.30,0.30,0.36,0.38,0.43,0.48,0.54,0.67,0.84,0.86,0.81,0.62,0.44,0.36,0.32,0.39,0.48,0.50,0.53,0.55,0.52,0.52,0.53,0.57,0.58,0.61,0.63,0.70,0.70,0.67,0.63,0.56,0.53,0.51,0.48,0.49,0.56,0.65,0.60,0.59,0.53,0.41,0.34,0.38,0.39,0.40,0.44,0.40,0.39,0.46,0.52,0.57,0.61,0.62,0.57,0.59,0.61
revenue per share,3.65,3.66,3.58,2.06,1.80,1.93,2.01,2.03,2.04,2.08,2.14,2.29,2.38,2.31,2.39,2.53,2.59,2.54,2.64,2.50,2.37,2.38,3.22,3.36,3.81,4.39,5.10,6.37,7.89,9.23,8.41,6.74,4.94,4.17,3.88,4.77,5.99,6.56,7.21,7.85,7.57,7.88,8.42,9.68,10.33,11.39,12.81,14.90,16.07,16.25,15.90,14.63,14.32,15.04,15.31,16.38,18.94,22.33,25.84,25.58,23.83,19.80,16.36,18.96,19.76,21.69,23.92,24.01,24.69,29.19,34.01,37.64,40.94,42.16,42.25,41.56,43.90
revenue/assets,0.3,0.3,0.3,0.3,0.3,0.3,0.3,0.3,0.3,0.3,0.3,0.3,0.3,0.3,0.3,0.3,0.3,0.3,0.3,0.3,0.2,0.2,0.3,0.3,0.3,0.4,0.4,0.5,0.6,0.6,0.6,0.5,0.3,0.3,0.2,0.3,0.3,0.4,0.4,0.4,0.4,0.4,0.4,0.4,0.4,0.4,0.4,0.5,0.5,0.5,0.4,0.4,0.4,0.3,0.3,0.3,0.4,0.4,0.4,0.4,0.4,0.3,0.2,0.3,0.3,0.3,0.3,0.3,0.3,0.3,0.4,0.4,0.4,0.4,0.4,0.4,0.4
sale of long-term investments,0.0,0.0,0.0,0.0,0.0,0.0,0.0,0.0,0.0,0.0,0.0,0.0,0.0,0.0,0.0,0.0,0.0,0.0,0.0,0.0,0.0,0.0,0.0,0.0,0.0,0.0,0.0,0.0,0.0,0.0,0.0,0.0,0.0,0.0,0.0,0.0,0.0,0.0,0.0,0.0,0.0,0.0,0.0,0.0,0.0,0.0,0.0,0.0,0.0,0.0,0.0,0.0,0.0,0.0,0.0,0.0,0.0,0.0,0.0,0.0,0.0,0.0,0.0,0.0,0.0,0.0,0.0,0.0,0.0,0.0,0.0,0.0,0.0,0.0,0.0,0.0,0.0
sale of short-term investments,0.0,0.0,0.0,0.0,7.2,0.0,0.0,0.0,0.0,0.0,0.0,0.0,0.0,0.0,0.0,0.0,0.0,0.0,0.0,0.0,0.0,0.0,0.0,0.0,0.0,0.0,0.0,0.0,0.0,0.0,0.0,0.0,0.0,0.0,0.0,0.0,0.0,0.0,0.0,0.0,0.0,0.0,0.0,0.0,0.0,0.0,0.0,0.0,0.0,0.0,0.0,0.0,0.0,0.0,0.0,0.0,0.0,0.0,0.0,0.0,0.0,0.0,0.0,0.0,0.0,0.0,0.0,0.0,0.0,0.0,0.0,0.0,0.0,0.0,0.0,0.0,0.0
sales per $ inventory,0.00,35.25,31.92,39.50,35.71,40.03,55.35,55.44,47.62,42.12,35.19,35.29,26.68,24.64,23.36,24.48,23.33,23.40,23.15,19.42,18.97,20.80,37.45,42.63,52.75,58.93,71.65,89.63,90.35,97.17,90.15,82.47,62.59,56.86,49.47,57.85,75.10,79.44,79.85,83.04,74.07,61.29,64.83,57.51,50.65,52.38,56.39,57.06,50.86,40.05,32.98,31.38,28.59,31.67,34.26,39.47,47.67,50.51,44.01,33.98,24.58,20.36,17.19,18.29,15.97,17.93,15.92,14.67,13.75,14.51,15.75,17.15,19.65,18.34,17.40,16.52,17.12
sales per $ receivables,4.98,5.54,6.06,4.91,3.93,4.00,3.94,3.85,3.61,3.44,3.67,2.63,3.36,3.51,3.36,3.38,3.39,4.32,4.44,3.97,4.32,4.25,5.68,5.41,4.97,4.54,4.45,4.35,6.40,8.13,9.43,8.00,6.17,4.75,4.55,3.53,3.71,4.96,6.04,6.01,5.80,5.21,5.69,5.11,5.60,6.07,4.90,4.73,6.21,6.60,5.90,4.20,4.51,4.71,4.88,4.27,4.11,3.78,6.10,8.52,10.59,8.42,6.54,5.92,5.49,6.54,6.15,5.22,5.26,6.00,7.16,6.85,7.04,8.10,7.00,6.70,6.23
sales per employee,None,None,None,954154,None,None,None,998000,None,None,None,1124000,None,None,None,949697,None,None,None,646387,None,None,None,1061457,None,None,None,1752818,None,None,None,1621045,None,None,None,1095036,None,None,None,1654904,None,None,None,1841873,None,None,None,2576421,None,None,None,2270589,None,None,None,2243609,None,None,None,3041200,None,None,None,2279504,None,None,None,2663710,None,None,None,3971025,None,None,None,4259959,None
shares out (common class only),159.8,159.9,159.7,301.7,320.0,319.9,319.8,319.7,320.0,319.8,319.7,319.5,316.4,314.9,314.3,310.1,309.6,309.7,307.4,307.4,307.5,307.8,238.3,238.2,234.4,233.2,233.4,233.8,232.5,215.0,231.2,230.9,232.0,232.3,231.0,229.4,229.2,229.8,230.1,231.8,232.6,235.4,236.7,237.9,239.1,239.9,241.5,242.1,242.6,242.6,243.5,243.7,244.5,244.8,245.8,246.5,248.1,248.8,249.6,249.6,250.3,250.5,252.3,252.5,253.0,253.4,253.8,254.1,268.4,268.6,268.8,269.0,269.6,269.8,270.8,271.6,272.1
short-term debt,0.0,0.0,0.0,1.7,1.8,1.8,0.0,0.0,0.0,0.0,0.0,0.0,0.0,0.0,0.0,0.0,0.0,0.0,0.0,0.0,0.0,0.0,0.0,0.0,0.0,0.0,0.0,0.0,0.0,0.0,0.0,0.0,0.0,0.0,0.0,0.0,0.0,0.0,0.0,0.0,0.0,0.0,0.0,0.0,0.0,0.0,0.0,126.1,124.1,124.1,124.1,0.0,0.0,0.0,98.4,0.0,0.0,0.0,37.0,37.0,0.0,37.0,37.0,37.0,37.0,0.0,0.0,220.0,220.0,220.0,220.0,0.0,0.0,0.0,0.0,406.6,406.6
special income charges,0.0,0.0,0.0,0.0,0.0,0.0,0.0,0.0,0.0,0.0,0.0,0.0,0.0,0.0,0.0,0.0,0.0,0.0,0.0,0.0,0.0,0.0,0.0,0.0,0.0,0.0,0.0,0.0,0.0,0.0,0.0,-19.2,0.0,0.0,0.0,0.0,-12.0,0.0,0.0,0.0,-17.6,-15.7,-17.9,51.3,-12.2,-24.2,0.0,-77.9,-22.8,-22.7,-22.1,-40.7,-24.0,-20.8,-42.0,-60.7,-32.6,-48.9,-32.1,-79.3,-65.5,-47.0,-69.4,-123.9,-69.6,-80.4,-352.9,-239.8,-89.3,-358.7,-83.4,-499.6,-133.1,-54.2,-62.9,"-1,020.5",-53.5
tangible book value per share,5.96,6.14,6.38,3.46,3.34,3.48,3.57,3.64,3.67,3.80,3.87,3.96,3.95,3.99,4.06,4.13,4.20,4.06,4.15,4.16,4.18,4.26,3.99,4.12,4.21,4.36,4.72,5.28,5.96,7.03,6.67,6.48,6.37,6.62,6.57,6.64,7.31,7.98,8.48,8.95,9.32,9.90,10.89,11.97,12.78,13.76,15.54,17.42,19.14,20.81,22.08,22.76,23.69,25.49,26.79,28.33,28.98,29.85,35.74,36.11,36.42,36.97,37.72,39.59,40.18,39.98,39.86,40.27,43.92,44.97,46.47,46.99,48.19,49.50,50.93,48.91,50.56
total assets per share,11.09,11.28,11.62,6.17,6.22,6.40,6.60,6.72,6.74,6.85,6.96,7.69,7.81,8.05,8.31,8.78,8.85,8.63,9.63,9.82,9.73,9.62,10.90,10.96,11.16,11.37,12.31,12.83,12.96,14.94,14.65,14.79,15.00,15.45,15.98,16.62,17.76,18.46,19.23,20.49,21.31,21.78,22.91,24.38,25.58,26.79,29.09,32.03,33.98,35.62,37.65,38.58,40.19,42.99,46.65,49.04,52.20,57.18,63.44,63.90,63.86,67.05,68.26,71.75,73.16,76.82,78.57,85.11,87.72,89.22,92.23,92.33,94.80,96.36,103.50,100.64,103.77
total capitalization,0.0,0.0,0.0,0.0,0.0,0.0,0.0,0.0,0.0,0.0,0.0,0.0,0.0,0.0,0.0,0.0,0.0,0.0,0.0,0.0,0.0,"1,310.0","2,116.9","2,119.9","2,074.8","2,112.7","2,193.5","2,239.9","2,177.1","2,299.4","2,390.5","2,498.7","2,600.8","2,721.5","2,756.7","2,817.5","2,867.2","2,992.6","3,111.3","3,332.3","3,401.4","3,563.8","3,788.9","4,023.0","4,273.4","4,516.5","4,894.2","5,175.3","5,552.0","5,916.8","6,179.7","6,333.1","6,665.7","7,176.4","7,812.1","8,175.1","8,375.5","8,573.2","10,780.0","10,874.5","11,220.6","12,019.5","12,277.7","12,758.0","12,924.9","13,865.1","13,886.8","15,235.0","16,793.1","17,083.4","17,501.6","17,650.1","18,002.4","18,367.0","20,098.7","19,190.4","19,662.2"
total debt as % total assets,46.3,45.6,45.1,44.0,45.5,44.8,46.0,45.8,45.5,44.6,44.4,48.5,49.4,50.5,51.2,53.0,52.6,53.0,56.9,57.6,57.0,55.8,63.4,56.7,56.7,56.1,56.5,54.0,49.1,48.3,50.1,51.9,53.3,53.0,54.9,56.2,55.2,53.3,52.5,53.2,53.3,51.7,49.7,49.2,48.4,47.1,45.2,44.3,42.5,40.4,40.3,40.4,40.5,40.2,42.2,42.2,44.5,47.8,43.7,43.5,43.0,44.9,44.7,44.8,45.1,48.0,49.3,52.7,49.9,49.6,49.6,49.1,49.2,48.6,50.8,51.4,51.3
total debt/equity ratio,0.16,0.18,0.18,0.18,0.19,0.19,0.23,0.25,0.27,0.24,0.24,0.37,0.41,0.50,0.53,0.58,0.62,0.65,0.84,0.89,0.91,0.87,1.22,1.01,0.95,0.93,0.86,0.70,0.47,0.42,0.45,0.57,0.66,0.67,0.72,0.75,0.62,0.55,0.52,0.53,0.50,0.47,0.41,0.38,0.37,0.34,0.28,0.23,0.20,0.18,0.15,0.13,0.14,0.14,0.19,0.17,0.16,0.15,0.21,0.21,0.23,0.30,0.29,0.28,0.28,0.37,0.37,0.51,0.44,0.43,0.42,0.40,0.39,0.38,0.46,0.48,0.46
total non-current assets,"1,574.2","1,587.6","1,648.7","1,705.4","1,803.3","1,848.2","1,918.5","1,929.3","1,926.5","1,922.5","1,993.5","2,132.5","2,196.6","2,265.9","2,334.7","2,441.3","2,454.9","2,517.8","2,726.2","2,771.8","2,762.6","2,736.7","2,394.9","2,410.3","2,379.0","2,386.0","2,541.4","2,606.4","2,653.4","2,826.1","3,050.2","3,141.6","3,213.3","3,313.6","3,379.6","3,419.2","3,575.4","3,687.6","3,868.1","4,353.0","4,451.2","4,576.5","4,866.9","5,212.1","5,385.0","5,561.2","5,882.5","6,190.1","6,578.6","7,043.4","7,582.0","8,052.1","8,698.7","9,460.5","10,157.5","10,796.9","11,260.3","12,136.7","13,356.2","13,842.8","14,174.0","14,582.5","15,389.6","16,279.1","16,963.2","17,549.5","18,410.4","19,096.8","19,947.9","20,321.4","21,059.3","21,584.9","22,513.5","23,050.5","24,032.3","23,746.7","24,151.6"
total ordinary shares,0.0,0.0,0.0,0.0,0.0,0.0,0.0,0.0,0.0,0.0,0.0,0.0,0.0,0.0,0.0,0.0,0.0,0.0,0.0,0.0,0.0,0.0,0.0,0.0,0.0,0.0,0.0,0.0,0.0,0.0,0.0,0.0,0.0,0.0,0.0,0.0,0.0,0.0,0.0,0.0,0.0,0.0,0.0,0.0,0.0,0.0,0.0,0.0,0.0,0.0,0.0,0.0,0.0,0.0,0.0,0.0,0.0,0.0,0.0,0.0,0.0,0.0,0.0,0.0,0.0,0.0,0.0,0.0,0.0,0.0,0.0,0.0,0.0,0.0,0.0,0.0,0.0
total revenue,152.2,142.5,127.4,149.7,155.4,184.0,153.0,156.4,159.0,197.1,170.2,204.3,180.7,171.8,193.1,238.0,199.8,183.3,191.3,194.8,159.0,187.2,226.8,228.5,251.8,316.1,393.7,527.6,597.3,466.0,354.2,237.4,186.5,290.5,279.9,338.2,464.4,424.8,432.7,439.0,464.3,519.0,571.5,690.1,688.2,783.9,934.4,"1,200.5","1,084.5",919.1,968.2,932.5,910.5,"1,009.2",942.6,"1,176.3","1,570.8","1,865.4","3,219.5","1,033.5","1,158.2",861.0,"1,006.8","1,760.9","1,370.7","1,358.0","1,582.1","1,789.2","1,897.1","2,570.3","2,885.7","2,773.0","2,806.7","2,909.3","2,954.9","3,011.8","3,356.5"
treasury shares,0.2,0.1,0.3,0.0,0.0,0.1,0.2,0.3,0.0,0.2,0.3,0.5,3.6,5.1,5.7,9.9,10.4,10.3,12.6,12.6,12.5,12.2,11.1,11.3,15.0,16.2,16.0,15.7,17.0,17.3,18.3,18.6,17.5,17.1,18.4,20.0,20.3,19.7,19.3,17.6,16.9,14.1,12.7,11.6,10.4,9.6,7.9,7.4,6.9,6.9,6.0,5.7,5.0,4.7,3.6,2.9,1.4,0.7,0.2,0.1,0.1,0.1,0.1,0.1,0.1,0.1,0.1,0.1,0.1,0.1,0.3,0.3,0.4,0.4,0.5,0.3,0.3
treasury stock,0.0,0.0,0.0,0.0,0.0,0.0,0.0,0.0,0.0,0.0,0.0,0.0,0.0,0.0,0.0,0.0,0.0,0.0,0.0,0.0,0.0,-117.1,-127.9,-128.3,-156.8,-194.1,-211.7,-237.3,-276.5,-286.1,-298.6,-304.8,-287.4,-281.5,-303.8,-335.9,-344.4,-334.3,-327.9,-299.6,-287.0,-240.4,-217.1,-200.7,-181.0,-167.0,-140.7,-131.3,-125.7,-133.7,-118.9,-113.4,-101.7,-95.0,-76.0,-61.9,-31.4,-16.3,-5.1,-5.7,-3.1,-4.2,-7.9,-7.7,-8.9,-8.9,-11.2,-11.2,-11.7,-12.9,-23.1,-24.9,-36.3,-39.2,-47.0,-33.8,-33.3
working capital,30.1,50.5,55.3,-8.2,45.0,54.6,35.1,48.5,87.0,86.4,16.0,8.5,8.0,51.0,43.9,-8.9,38.2,6.0,-33.2,-16.2,6.2,25.8,-9.7,-18.1,1.4,59.2,41.4,24.7,-47.2,-11.3,-46.3,-38.4,4.6,42.3,44.6,118.4,163.9,229.7,204.0,-80.5,10.8,44.4,33.3,-45.4,169.3,261.7,370.8,391.2,597.2,516.2,324.0,95.1,29.6,-94.8,-31.3,-182.1,-34.7,-356.9,643.4,343.5,526.4,"1,020.7",630.5,494.0,52.8,358.0,-403.9,307.3,"1,097.4","1,161.7","1,069.0",731.6,269.7,268.1,"1,421.8",665.8,"1,006.3"
working capital as % of price,0.9,1.4,1.7,-0.3,1.1,1.6,1.0,1.3,2.0,1.9,0.4,0.2,0.3,1.8,1.3,-0.3,1.0,0.2,-1.3,-0.6,0.2,0.8,-0.4,-0.9,0.1,1.5,0.9,0.4,-1.0,-0.3,-1.4,-0.9,0.1,0.9,1.1,2.6,3.6,4.8,4.3,-1.5,0.2,0.6,0.4,-0.5,1.5,1.9,2.0,2.2,3.4,3.1,2.0,0.6,0.2,-0.5,-0.2,-0.8,-0.1,-1.1,2.9,2.1,3.8,6.0,3.0,2.0,0.2,1.4,-1.7,1.3,3.5,4.1,5.6,2.8,0.9,1.1,4.7,2.0,2.9
working capital per share,0.19,0.32,0.35,-0.03,0.14,0.17,0.11,0.15,0.27,0.27,0.05,0.03,0.03,0.16,0.14,-0.03,0.12,0.02,-0.11,-0.05,0.02,0.08,-0.04,-0.08,0.01,0.25,0.18,0.11,-0.20,-0.05,-0.20,-0.17,0.02,0.18,0.19,0.52,0.72,1.00,0.89,-0.35,0.05,0.19,0.14,-0.19,0.71,1.09,1.53,1.62,2.46,2.13,1.33,0.39,0.12,-0.39,-0.13,-0.74,-0.14,-1.43,2.58,1.38,2.10,4.08,2.50,1.96,0.21,1.41,-1.59,1.21,4.09,4.33,3.98,2.72,1.00,0.99,5.25,2.45,3.70
working captial as % of equity,3.2,5.1,5.4,-0.8,4.2,4.9,3.1,4.2,7.4,7.1,1.3,0.7,0.6,4.1,3.4,-0.7,2.9,0.5,-2.6,-1.3,0.5,2.0,-1.0,-1.8,0.1,5.8,3.8,2.0,-3.4,-0.8,-3.0,-2.6,0.3,2.7,2.9,7.8,9.8,12.5,10.5,-3.9,0.5,1.9,1.3,-1.6,5.5,7.9,9.9,9.3,12.9,10.2,6.0,1.7,0.5,-1.5,-0.5,-2.6,-0.5,-4.8,7.2,3.8,5.8,11.0,6.6,4.9,0.5,3.5,-4.0,3.0,9.3,9.6,8.6,5.8,2.1,2.0,10.3,5.0,7.3
