,1994/03,1994/06,1994/09,1994/12,1995/03,1995/06,1995/09,1995/12,1996/03,1996/06,1996/09,1996/12,1997/03,1997/06,1997/09,1997/12,1998/03,1998/06,1998/09,1998/12,1999/03,1999/06,1999/09,1999/12,2000/03,2000/06,2000/09,2000/12,2001/03,2001/06,2001/09,2001/12,2002/03,2002/06,2002/09,2002/12,2003/03,2003/06,2003/09,2003/12,2004/03,2004/06,2004/09,2004/12,2005/03,2005/06,2005/09,2005/12,2006/03,2006/06,2006/09,2006/12,2007/03,2007/06,2007/09,2007/12,2008/03,2008/06,2008/09,2008/12,2009/03,2009/06,2009/09,2009/12,2010/03,2010/06,2010/09,2010/12,2011/03,2011/06,2011/09,2011/12,2012/03,2012/06,2012/09,2012/12,2013/03
% of EPS-to-Industry,105.9,99.3,138.3,173.4,194.0,222.3,219.9,204.3,184.1,188.9,195.0,197.0,201.0,193.1,0.0,177.5,187.7,193.3,225.3,379.7,391.4,476.5,423.7,222.8,224.3,209.8,217.4,175.0,152.5,138.8,137.8,145.9,152.4,-60.2,-34.7,-48.6,-15.6,301.1,260.4,186.0,186.7,194.6,205.8,221.9,207.1,205.6,188.8,185.6,205.6,220.6,192.8,173.6,171.1,156.0,177.6,185.6,165.6,172.2,152.4,-1999.2,-397.3,-275.9,3047.7,146.9,176.8,201.4,245.9,-238.9,-466.4,-757.8,-1207.0,252.6,218.9,244.9,280.0,221.5,684.6
% of PE-to-Industry,250.5,303.4,225.6,187.8,156.0,146.4,141.1,125.8,124.8,75.1,113.9,105.9,107.0,98.0,0.0,94.8,89.7,87.8,68.9,37.0,29.0,27.0,29.8,54.9,45.9,42.1,33.2,52.0,68.1,72.8,79.3,77.0,85.8,0.0,0.0,0.0,0.0,50.1,57.0,84.8,78.3,74.5,72.7,68.8,77.8,74.9,77.5,74.2,71.3,70.8,80.1,84.0,94.8,102.6,82.8,80.0,80.5,91.5,114.7,0.0,0.0,0.0,10.0,209.6,176.8,137.7,113.4,0.0,0.0,0.0,0.0,108.3,121.7,123.4,98.2,126.8,37.8
% of ROE-to-Industry,73.1,69.3,92.3,125.6,132.0,150.3,155.1,161.6,144.7,144.6,144.8,154.6,156.0,151.3,0.0,133.8,126.2,121.4,125.2,141.1,119.6,118.4,91.7,82.8,74.4,72.0,81.3,85.1,75.7,71.0,67.8,77.3,80.4,0.0,0.0,0.0,0.0,203.1,181.6,111.0,109.8,119.5,129.5,132.6,95.9,103.5,109.8,123.4,130.7,133.5,120.0,112.2,108.8,95.9,98.5,102.0,88.5,87.0,83.2,0.0,0.0,0.0,416.7,92.7,126.4,134.0,147.5,76.7,88.9,64.6,73.4,198.2,226.3,283.7,229.5,147.2,330.3
% of current ratio-to-industry,123.1,121.4,128.6,88.2,84.2,84.2,78.9,73.7,72.2,72.2,82.4,72.2,77.8,77.8,0.0,94.1,88.2,94.1,105.9,87.5,76.5,87.5,87.5,81.3,76.5,72.2,76.5,70.6,70.6,81.3,130.0,87.5,87.5,77.8,83.3,150.0,160.0,177.8,136.4,170.0,170.0,177.8,170.0,180.0,200.0,180.0,212.5,242.9,300.0,94.4,94.4,84.2,84.2,94.4,94.7,78.9,78.9,78.9,83.3,78.9,75.0,84.2,80.0,81.0,81.0,81.0,81.8,86.4,86.4,78.3,78.3,85.7,71.4,72.7,81.0,77.3,91.3
% of debt/equity-to-industry,33.0,30.6,28.4,30.3,21.2,20.0,23.7,24.0,23.9,29.6,30.6,34.0,41.0,40.0,0.0,58.8,54.7,47.4,43.2,40.0,37.6,37.1,62.0,59.0,54.2,51.8,58.6,65.9,61.5,56.0,55.0,55.6,50.5,53.4,49.2,53.7,51.4,46.9,36.5,32.4,36.0,35.6,30.1,25.8,22.2,23.3,23.5,24.2,23.0,20.2,20.5,19.9,18.7,17.2,15.3,14.6,39.3,36.5,37.6,113.9,96.4,110.6,98.9,120.6,104.9,108.8,109.7,156.3,163.1,143.5,153.1,166.7,146.8,143.3,127.9,125.8,111.1
% of earnings-to-industry,2.9,2.7,3.8,4.8,5.3,6.0,5.9,5.6,4.9,4.9,4.9,4.7,4.9,4.6,0.0,3.6,3.6,3.5,4.0,4.4,3.8,3.7,2.6,2.2,2.2,2.1,2.3,1.9,1.6,1.4,1.3,1.5,1.6,-0.6,-0.3,-0.5,-0.2,3.4,2.9,2.0,1.9,2.0,2.1,2.2,2.1,2.2,2.1,2.3,2.5,2.7,2.4,2.1,2.1,1.9,2.1,2.3,2.0,2.0,1.9,-200.5,-37.1,-26.8,61.6,9.7,10.3,9.9,9.2,4.3,4.7,4.8,5.3,13.7,14.8,18.8,21.1,10.6,26.7
% of gross profit margin-to-industry,116.4,112.0,103.9,101.8,102.8,102.6,102.5,97.8,95.9,95.9,93.7,91.6,90.5,89.7,0.0,94.7,95.1,95.3,95.1,88.7,86.5,84.7,83.1,83.4,82.9,81.6,81.5,83.4,83.1,83.9,84.7,81.4,81.8,82.0,80.9,74.5,71.7,68.2,65.7,72.5,73.5,74.3,76.0,78.2,77.2,76.0,73.4,76.4,79.4,85.2,87.6,76.7,75.5,72.3,73.1,77.0,75.7,81.6,81.4,143.6,145.3,138.0,129.4,125.5,123.2,123.7,131.5,151.0,160.8,169.3,172.2,151.2,150.2,144.7,140.0,139.9,137.8
% of leverage-to-industry,35.9,37.1,36.7,46.0,44.0,44.0,44.2,46.2,48.1,48.1,47.2,50.0,50.9,50.9,0.0,52.9,52.9,50.9,45.3,47.3,47.4,46.4,53.7,53.7,50.9,50.9,53.7,59.2,61.2,58.0,53.8,50.9,52.8,61.5,57.4,62.7,63.2,60.7,57.9,52.7,55.8,56.0,53.1,52.1,46.3,48.1,54.0,53.8,53.8,52.9,54.9,59.6,57.7,55.8,50.9,55.6,64.3,63.6,63.2,133.3,145.5,135.3,124.2,135.7,131.0,139.3,133.3,157.7,160.0,152.0,160.0,169.2,180.0,172.0,153.8,150.0,133.3
% of net profit margin-to-industry,100.0,92.6,127.8,147.3,163.2,181.4,177.0,170.3,152.2,153.7,154.4,145.1,147.8,140.8,0.0,116.9,118.1,117.3,132.9,142.7,125.3,124.1,90.5,89.0,90.1,84.9,88.6,80.0,72.1,67.1,68.5,68.1,72.3,-28.6,-15.8,-16.7,-4.4,100.0,78.6,65.5,65.6,68.9,74.2,84.7,77.0,76.3,68.8,63.0,71.0,77.8,67.4,59.3,59.3,53.2,60.7,67.3,55.7,53.0,46.3,-680.0,-122.2,-100.0,275.0,64.8,80.4,87.1,96.8,50.4,60.3,63.2,67.3,137.0,138.1,166.7,167.6,104.5,272.4
% of post-tax profit margin-to-industry,106.0,90.9,123.2,128.6,140.9,157.4,156.5,165.2,161.9,163.5,164.1,158.5,147.8,140.8,0.0,129.3,128.9,128.4,145.8,142.7,130.3,132.4,98.7,100.0,98.6,90.1,92.9,80.0,72.1,67.1,68.5,68.1,72.3,-25.8,-14.3,-10.9,-2.9,78.1,63.2,65.5,65.6,68.1,73.3,83.7,76.1,76.3,68.8,58.0,66.0,71.4,62.0,59.8,58.7,52.7,64.2,66.4,55.7,53.5,42.0,1700.0,-314.3,-340.0,115.8,61.4,78.9,87.1,96.8,50.9,61.4,63.7,68.5,142.3,141.5,176.5,182.4,107.7,123.9
% of pre-tax profit margin-to-industry,122.5,107.0,136.8,135.0,144.8,160.6,160.4,172.1,174.2,174.5,159.6,165.4,163.5,167.0,0.0,140.7,141.7,139.8,155.5,149.6,135.9,136.8,107.6,109.6,109.5,103.2,103.1,88.1,78.9,74.8,79.6,84.5,86.0,-20.5,-6.5,-3.4,5.6,99.0,82.6,80.7,80.5,82.3,86.2,96.6,86.6,87.0,79.5,67.9,76.5,78.5,67.6,67.6,65.1,60.7,74.0,75.5,67.1,63.9,51.9,570.0,-1050.0,0.0,122.2,60.2,87.1,102.4,111.0,82.8,85.2,84.8,85.2,125.9,108.9,115.8,123.6,97.9,118.9
% of pric/free cashlow-to-industry,326.3,566.6,24.2,378.0,-255.6,49.0,12.9,30.6,285.5,17.2,96.5,140.5,0.0,32.6,0.0,-76.2,728.6,-520.0,12571.9,-6.3,52.2,132.1,12.5,-0.9,45.7,83.1,144.5,76.2,144.5,-92.4,-35.3,-25.1,111.3,-196.2,-47.4,-61.0,-90.1,-9.5,28.7,13.3,137.8,-357.2,-7.0,15.1,604.1,160.0,3.9,7.4,85.5,137.8,94.3,-127.5,42.3,39.6,36.0,25.3,8.4,9.0,27.0,80.1,-14.2,-137.0,226.6,119.5,303.3,-775.8,-12.3,-10.2,41.4,33.1,93.5,-25.9,69.3,-4706.0,-146.9,-39.5,-10.8
% of price-to-industry,282.9,298.1,300.4,277.9,259.9,281.6,276.8,248.6,245.4,152.4,237.8,226.4,214.9,187.5,0.0,175.8,176.8,176.1,163.5,140.6,117.8,128.7,126.2,122.3,102.9,88.3,72.3,91.1,103.8,101.1,109.3,112.2,130.8,180.8,159.9,169.7,154.5,150.7,148.4,157.8,146.1,145.1,149.6,152.6,161.1,154.0,146.4,137.8,146.5,156.2,154.5,145.7,162.2,160.0,147.1,148.6,133.3,157.6,175.0,418.8,378.2,334.2,319.7,308.3,313.5,277.8,278.6,255.5,252.5,215.3,256.7,273.7,266.1,301.7,274.8,280.5,258.8
% of price/book-to-industry,203.9,218.3,217.4,200.7,178.0,190.7,196.6,180.2,183.2,112.2,171.4,171.8,170.4,148.4,0.0,138.7,130.5,126.3,109.6,53.0,45.1,48.8,48.3,46.6,40.0,34.8,29.0,43.7,52.6,53.7,56.8,59.2,68.5,107.2,97.5,117.9,101.8,98.1,98.9,94.0,86.9,88.4,92.6,91.4,89.2,88.4,90.9,90.5,93.2,94.0,94.9,94.8,103.4,98.5,84.2,84.5,74.2,85.4,100.0,180.2,185.3,191.6,176.3,164.3,172.2,167.1,167.2,165.6,166.0,136.8,167.4,184.0,187.7,215.7,174.7,170.1,127.9
% of price/cashflow-to-industry,276.0,363.0,354.3,178.4,157.7,157.7,153.7,129.5,141.0,87.5,132.4,122.4,120.3,105.5,0.0,105.6,106.9,108.7,95.4,42.0,40.6,44.5,51.4,52.2,50.5,45.3,34.3,46.9,60.0,62.7,72.6,66.1,74.0,238.9,166.4,135.6,108.1,48.8,49.0,73.3,68.9,66.7,66.5,66.3,87.4,80.2,75.2,66.3,67.0,68.3,74.1,76.3,87.0,91.5,79.8,79.4,77.9,89.6,106.9,67.5,52.4,58.1,96.7,161.1,135.1,128.4,120.9,186.0,159.6,166.7,169.5,103.3,91.4,100.3,96.9,121.1,48.2
% of price/sales-to-industry,279.6,295.7,302.2,237.3,218.5,230.9,224.1,190.9,195.5,118.5,182.9,159.6,161.4,137.5,0.0,121.1,122.1,122.6,117.4,53.8,47.1,50.9,47.3,50.2,47.9,41.3,31.5,40.7,50.0,50.5,58.1,52.7,61.6,85.7,73.1,64.8,54.7,48.3,43.3,56.1,52.1,51.3,53.1,58.0,72.0,64.8,57.0,46.8,50.5,55.0,53.6,50.3,56.0,54.6,51.5,56.0,46.7,52.3,55.3,115.8,102.5,101.9,111.3,114.5,108.9,108.5,109.8,108.7,112.4,135.1,151.0,126.9,114.1,127.4,127.2,121.2,104.9
% of sales-to-industry,2.9,2.9,3.0,3.2,3.3,3.3,3.4,3.3,3.2,3.2,3.2,3.3,3.3,3.3,0.0,3.0,3.0,3.0,3.0,3.1,3.0,3.0,2.9,2.5,2.5,2.5,2.6,2.3,2.2,2.1,1.9,2.2,2.2,2.2,2.2,2.8,3.1,3.4,3.7,3.0,2.9,2.9,2.8,2.6,2.7,2.9,3.1,3.6,3.6,3.5,3.6,3.6,3.6,3.6,3.6,3.4,3.6,3.8,4.1,30.2,29.4,26.5,23.3,15.0,12.8,11.4,9.6,8.4,7.8,7.6,7.9,10.0,10.8,11.2,12.6,10.1,9.8
(increase) decrease in inventories,0.0,0.0,0.0,-25.6,0.0,0.0,0.0,-47.1,0.0,0.0,0.0,-56.1,0.0,0.0,0.0,-60.0,0.0,0.0,0.0,-73.0,0.0,0.0,0.0,-7.0,0.0,0.0,0.0,-92.0,0.0,0.0,0.0,187.0,0.0,0.0,0.0,-9.0,0.0,0.0,0.0,11.0,0.0,0.0,0.0,-45.0,0.0,0.0,0.0,-59.0,0.0,0.0,0.0,-78.0,0.0,0.0,0.0,-55.0,0.0,0.0,0.0,79.0,0.0,0.0,0.0,232.0,0.0,0.0,0.0,-34.0,-142.0,-176.0,-190.0,-73.0,-143.0,-135.0,-92.0,29.0,-109.0
(increase) decrease in other current assets,0.0,0.0,0.0,0.0,0.0,0.0,0.0,0.0,0.0,0.0,0.0,0.0,0.0,0.0,0.0,0.0,0.0,0.0,0.0,0.0,0.0,0.0,0.0,-110.0,0.0,0.0,0.0,-102.0,0.0,0.0,0.0,-31.0,0.0,0.0,0.0,-14.0,0.0,0.0,0.0,2.0,0.0,0.0,0.0,-25.0,0.0,0.0,0.0,-95.0,0.0,0.0,0.0,-9.0,0.0,0.0,0.0,-24.0,0.0,0.0,0.0,-123.0,0.0,0.0,0.0,62.0,0.0,0.0,0.0,39.0,-65.0,-62.0,-45.0,-32.0,-14.0,-17.0,1.0,4.0,-40.0
(increase) decrease in prepaid expenses,0.0,0.0,0.0,0.0,0.0,0.0,0.0,0.0,0.0,0.0,0.0,0.0,0.0,0.0,0.0,0.0,0.0,0.0,0.0,0.0,0.0,0.0,0.0,0.0,0.0,0.0,0.0,0.0,0.0,0.0,0.0,0.0,0.0,0.0,0.0,0.0,0.0,0.0,0.0,0.0,0.0,0.0,0.0,0.0,0.0,0.0,0.0,0.0,0.0,0.0,0.0,0.0,0.0,0.0,0.0,0.0,0.0,0.0,0.0,0.0,0.0,0.0,0.0,0.0,0.0,0.0,0.0,0.0,0.0,0.0,0.0,0.0,0.0,0.0,0.0,0.0,0.0
(increase) decrease in receivables,0.0,0.0,0.0,-263.7,0.0,0.0,0.0,-29.0,0.0,0.0,0.0,-1.5,0.0,0.0,0.0,-124.0,0.0,0.0,0.0,-85.0,0.0,0.0,0.0,-128.0,0.0,0.0,0.0,-44.0,0.0,0.0,0.0,74.0,0.0,0.0,0.0,-36.0,0.0,0.0,0.0,-58.0,0.0,0.0,0.0,-134.0,0.0,0.0,0.0,-144.0,0.0,0.0,0.0,-87.0,0.0,0.0,0.0,-237.0,0.0,0.0,0.0,-4.0,0.0,0.0,0.0,235.0,0.0,0.0,0.0,-178.0,-312.0,-508.0,-390.0,-129.0,-303.0,-436.0,-310.0,90.0,-324.0
Basic EPS (Continuing),0.57,0.46,0.68,0.72,1.06,1.06,0.85,0.83,0.90,1.20,1.03,0.83,0.91,1.21,0.96,0.89,1.08,1.13,1.40,0.91,0.71,1.06,0.57,0.93,0.80,1.18,0.87,0.72,0.33,0.92,0.56,0.49,0.25,-2.04,0.87,0.56,0.49,0.90,0.83,0.72,0.67,1.07,1.13,1.07,0.55,1.35,0.93,0.68,1.11,1.69,0.54,0.95,1.18,1.51,1.30,1.18,0.53,1.52,0.71,0.43,-0.68,0.89,0.96,0.86,0.18,1.64,1.59,1.26,1.42,2.15,1.98,1.41,0.08,2.37,2.21,1.47,1.50
Basic EPS (Cum. Effect of Acct. Change),0.00,0.00,0.00,0.00,0.00,0.00,0.00,0.00,0.00,0.00,0.00,0.00,0.00,0.00,0.00,0.00,0.00,0.00,0.00,0.00,0.00,0.00,0.00,0.00,0.00,0.00,0.00,0.00,0.00,0.00,0.00,0.00,-0.05,0.00,0.00,0.00,-0.03,0.00,0.00,0.00,0.00,0.00,0.00,0.00,0.00,0.00,0.00,0.00,0.00,0.00,0.00,0.00,0.00,0.00,0.00,0.00,0.00,0.00,0.00,0.00,0.00,0.00,0.00,0.00,0.00,0.00,0.00,0.00,0.00,0.00,0.00,0.00,0.00,0.00,0.00,0.00,0.00
Basic EPS (Discontinued),0.00,0.00,0.00,0.00,0.00,0.00,0.00,0.00,0.00,0.00,0.00,0.00,0.00,0.00,0.00,0.00,0.00,0.00,0.00,0.00,0.00,0.00,0.00,0.00,0.00,0.00,0.00,0.00,0.00,0.00,0.00,0.00,0.00,0.00,0.00,0.00,0.00,0.00,0.00,0.00,0.00,0.00,0.00,0.00,0.00,0.00,0.00,0.00,0.00,0.00,0.00,0.00,0.00,0.00,-0.14,0.04,0.08,0.00,0.00,0.00,0.00,0.00,0.00,0.00,0.00,0.00,0.00,0.00,0.00,0.00,0.00,0.00,0.00,0.00,0.00,0.00,14.99
Basic EPS (Extraordinary Items),0.00,0.00,0.00,0.00,0.00,0.00,0.00,0.00,0.00,0.00,0.00,0.00,0.00,0.00,0.00,0.00,0.00,0.00,0.00,0.00,0.00,0.00,0.00,0.00,0.00,0.00,0.00,0.00,0.00,0.00,0.00,0.00,0.00,0.00,0.00,0.00,0.00,0.00,0.00,0.00,0.00,0.00,0.00,0.00,0.00,0.00,0.00,0.00,0.00,0.00,0.00,0.00,0.00,0.00,0.00,0.00,0.00,0.00,0.00,0.00,0.00,0.00,0.00,0.00,0.00,0.00,0.00,0.00,0.00,0.00,0.00,0.00,0.00,0.00,0.00,0.00,0.00
Basic EPS (Other Gains/Losses),0.00,0.00,0.00,0.00,0.00,0.00,0.00,0.00,0.00,0.00,0.00,0.00,0.00,0.00,0.00,0.00,0.00,0.00,0.00,0.00,0.00,0.00,0.00,0.00,0.00,0.00,0.00,0.00,0.00,0.00,0.00,0.00,0.00,0.00,0.00,0.00,0.00,0.00,0.00,0.00,0.00,0.00,0.00,0.00,0.00,0.00,0.00,0.00,0.00,0.00,0.00,0.00,0.00,0.00,0.00,0.00,0.00,0.00,0.00,0.00,0.00,0.00,0.00,0.00,0.00,0.00,0.00,0.00,0.00,0.00,0.00,0.00,0.00,0.00,0.00,0.00,0.00
Basic EPS (Tax Loss Carry Forward),0.00,0.00,0.00,0.00,0.00,0.00,0.00,0.00,0.00,0.00,0.00,0.00,0.00,0.00,0.00,0.00,0.00,0.00,0.00,0.00,0.00,0.00,0.00,0.00,0.00,0.00,0.00,0.00,0.00,0.00,0.00,0.00,0.00,0.00,0.00,0.00,0.00,0.00,0.00,0.00,0.00,0.00,0.00,0.00,0.00,0.00,0.00,0.00,0.00,0.00,0.00,0.00,0.00,0.00,0.00,0.00,0.00,0.00,0.00,0.00,0.00,0.00,0.00,0.00,0.00,0.00,0.00,0.00,0.00,0.00,0.00,0.00,0.00,0.00,0.00,0.00,0.00
Close PE Ratio,25.8,27.0,20.3,15.4,13.1,12.3,12.7,12.2,13.6,13.0,13.9,14.3,13.7,14.8,16.2,14.5,16.5,17.3,12.2,13.0,12.5,14.6,18.6,19.4,15.8,12.9,10.6,13.0,14.8,18.4,17.9,22.6,24.8,0.0,0.0,0.0,0.0,18.1,18.9,21.9,18.8,19.1,17.2,17.3,18.9,15.4,15.3,16.6,15.6,15.0,16.7,15.0,16.2,18.3,15.9,14.0,13.5,12.8,14.5,13.1,18.8,32.8,36.4,28.8,22.6,16.6,17.1,18.2,16.3,14.3,10.5,12.2,17.3,18.4,19.2,22.3,6.0
Diluted EPS (Continuing),0.56,0.45,0.68,0.71,1.05,1.05,0.84,0.82,0.88,1.20,1.02,0.82,0.90,1.20,0.95,0.89,1.07,1.11,1.39,0.91,0.70,1.05,0.56,0.92,0.79,1.17,0.86,0.75,0.33,0.92,0.55,0.49,0.25,-2.03,0.87,0.55,0.49,0.89,0.83,0.71,0.67,1.06,1.12,1.06,0.55,1.34,0.92,0.68,1.11,1.68,0.54,0.94,1.17,1.50,1.29,1.17,0.53,1.51,0.70,0.43,-0.68,0.89,0.96,0.86,0.18,1.63,1.58,1.24,1.40,2.12,1.96,1.39,0.08,2.34,2.18,1.45,1.48
Diluted EPS (Cum. Effect of Acct. Change),0.00,0.00,0.00,0.00,0.00,0.00,0.00,0.00,0.00,0.00,0.00,0.00,0.00,0.00,0.00,0.00,0.00,0.00,0.00,0.00,0.00,0.00,0.00,0.00,0.00,0.00,0.00,0.00,0.00,0.00,0.00,0.00,-0.05,0.00,0.00,0.00,-0.03,0.00,0.00,0.00,0.00,0.00,0.00,0.00,0.00,0.00,0.00,0.00,0.00,0.00,0.00,0.00,0.00,0.00,0.00,0.00,0.00,0.00,0.00,0.00,0.00,0.00,0.00,0.00,0.00,0.00,0.00,0.00,0.00,0.00,0.00,0.00,0.00,0.00,0.00,0.00,0.00
Diluted EPS (Discontinued),0.00,0.00,0.00,0.00,0.00,0.00,0.00,0.00,0.00,0.00,0.00,0.00,0.00,0.00,0.00,0.00,0.00,0.00,0.00,0.00,0.00,0.00,0.00,0.00,0.00,0.00,0.00,0.00,0.00,0.00,0.00,0.00,0.00,0.00,0.00,0.00,0.00,0.00,0.00,0.00,0.00,0.00,0.00,0.00,0.00,0.00,0.00,0.00,0.00,0.00,0.00,0.00,0.00,0.00,-0.14,0.04,0.08,0.00,0.00,0.00,0.00,0.00,0.00,0.00,0.00,0.00,0.00,0.00,0.00,0.00,0.00,0.00,0.00,0.00,0.00,0.00,14.83
Diluted EPS (Extraordinary),0.00,0.00,0.00,0.00,0.00,0.00,0.00,0.00,0.00,0.00,0.00,0.00,0.00,0.00,0.00,0.00,0.00,0.00,0.00,0.00,0.00,0.00,0.00,0.00,0.00,0.00,0.00,0.00,0.00,0.00,0.00,0.00,0.00,0.00,0.00,0.00,0.00,0.00,0.00,0.00,0.00,0.00,0.00,0.00,0.00,0.00,0.00,0.00,0.00,0.00,0.00,0.00,0.00,0.00,0.00,0.00,0.00,0.00,0.00,0.00,0.00,0.00,0.00,0.00,0.00,0.00,0.00,0.00,0.00,0.00,0.00,0.00,0.00,0.00,0.00,0.00,0.00
Diluted EPS (Other Gains/Losses),0.00,0.00,0.00,0.00,0.00,0.00,0.00,0.00,0.00,0.00,0.00,0.00,0.00,0.00,0.00,0.00,0.00,0.00,0.00,0.00,0.00,0.00,0.00,0.00,0.00,0.00,0.00,0.00,0.00,0.00,0.00,0.00,0.00,0.00,0.00,0.00,0.00,0.00,0.00,0.00,0.00,0.00,0.00,0.00,0.00,0.00,0.00,0.00,0.00,0.00,0.00,0.00,0.00,0.00,0.00,0.00,0.00,0.00,0.00,0.00,0.00,0.00,0.00,0.00,0.00,0.00,0.00,0.00,0.00,0.00,0.00,0.00,0.00,0.00,0.00,0.00,0.00
Diluted EPS (Tax Loss Carry Forward),0.00,0.00,0.00,0.00,0.00,0.00,0.00,0.00,0.00,0.00,0.00,0.00,0.00,0.00,0.00,0.00,0.00,0.00,0.00,0.00,0.00,0.00,0.00,0.00,0.00,0.00,0.00,0.00,0.00,0.00,0.00,0.00,0.00,0.00,0.00,0.00,0.00,0.00,0.00,0.00,0.00,0.00,0.00,0.00,0.00,0.00,0.00,0.00,0.00,0.00,0.00,0.00,0.00,0.00,0.00,0.00,0.00,0.00,0.00,0.00,0.00,0.00,0.00,0.00,0.00,0.00,0.00,0.00,0.00,0.00,0.00,0.00,0.00,0.00,0.00,0.00,0.00
Dividends Paid Per Share (YTD),0.27,0.55,0.83,1.12,0.29,0.58,0.88,1.18,0.30,0.62,0.94,1.26,0.33,0.66,0.99,1.33,0.34,0.70,1.06,1.42,0.38,0.76,1.14,1.52,0.40,0.80,1.20,1.60,0.42,0.84,1.26,1.68,0.42,0.84,1.27,1.70,0.43,0.86,1.29,1.73,0.44,0.89,1.34,1.79,0.45,0.92,1.39,1.86,0.47,0.95,1.43,1.91,0.50,1.00,1.52,2.04,0.52,1.04,1.56,2.09,0.53,1.06,1.59,2.13,0.54,1.08,1.63,2.18,0.55,1.12,1.69,2.26,0.57,1.16,1.75,2.34,0.59
EPS from Total Operations (YTD),0.56,1.02,1.70,2.41,1.05,2.10,2.94,3.76,0.88,2.08,3.10,3.92,0.90,2.10,3.05,3.94,1.07,2.18,3.57,4.48,0.70,1.75,2.31,3.23,0.79,1.96,2.82,3.57,0.33,1.25,1.80,2.29,0.25,-1.78,-0.91,-0.36,0.49,1.38,2.21,2.92,0.67,1.73,2.89,3.95,0.55,1.89,2.81,3.49,1.11,2.79,3.33,4.27,1.17,2.67,3.82,5.03,0.61,2.12,2.82,3.25,-0.68,0.21,1.17,2.03,0.18,1.81,3.39,4.63,1.40,3.52,5.48,6.87,0.08,2.42,4.61,6.06,16.31
High PE Ratio,28.1,29.1,21.6,17.5,14.6,12.3,12.9,12.7,14.0,14.3,13.9,15.9,15.8,15.8,17.4,17.1,16.7,19.1,17.2,17.1,18.6,17.5,22.0,21.9,21.3,19.5,17.4,18.2,18.7,20.9,23.4,26.1,27.0,0.0,0.0,0.0,0.0,22.5,20.8,22.1,20.8,19.8,18.1,17.4,19.7,18.4,19.3,21.4,17.8,15.7,17.2,16.3,16.7,19.0,17.3,16.4,18.4,18.4,19.8,21.8,35.7,52.2,37.8,30.7,23.1,19.9,17.4,18.3,16.5,15.4,14.6,14.2,17.6,18.7,20.0,22.6,6.6
"Income, Restructuring and M&A;",0.0,0.0,0.0,0.0,0.0,0.0,0.0,0.0,0.0,0.0,0.0,0.0,0.0,0.0,0.0,0.0,0.0,0.0,0.0,0.0,0.0,0.0,0.0,0.0,0.0,0.0,0.0,0.0,-101.0,0.0,-2.0,0.0,-81.0,4.0,0.0,0.0,0.0,-3.0,0.0,0.0,0.0,0.0,0.0,0.0,0.0,0.0,0.0,0.0,-35.0,-2.0,0.0,0.0,0.0,0.0,0.0,-24.0,0.0,0.0,-163.0,0.0,-186.0,0.0,0.0,0.0,0.0,0.0,0.0,0.0,0.0,0.0,0.0,0.0,-208.0,0.0,0.0,-208.0,0.0
LT-Debt as % of Invested Capital,23.5,23.0,22.2,23.2,19.3,18.8,22.0,22.3,22.2,25.5,24.8,25.1,29.1,28.5,28.5,33.4,32.1,31.2,29.2,27.3,27.6,26.4,38.1,37.2,36.8,36.1,36.7,36.9,36.1,35.7,35.7,35.6,35.6,38.3,38.1,44.1,43.2,40.9,35.0,31.5,30.9,29.7,26.9,24.9,24.3,25.8,26.3,27.7,26.8,25.6,25.5,26.3,25.2,23.8,22.8,22.4,45.4,42.7,43.4,47.4,51.3,51.0,46.6,45.0,45.9,46.7,44.2,52.6,51.5,47.1,49.5,52.4,47.6,46.1,46.6,45.3,41.2
LT-Debt as % of Total Debt,22.8,23.7,24.2,23.2,19.3,19.4,21.0,20.3,18.5,21.1,21.8,21.1,24.6,23.9,24.4,28.8,27.3,27.1,28.6,24.0,23.0,23.0,32.2,31.6,30.7,31.0,30.9,30.0,28.1,28.9,30.0,31.6,30.8,28.0,29.4,29.7,29.2,28.6,23.5,24.3,23.6,23.2,22.5,22.1,20.8,22.1,21.6,20.8,20.6,19.9,19.0,17.0,16.8,16.4,17.1,14.2,31.6,29.7,29.7,26.5,27.7,29.0,27.9,29.3,30.0,30.4,29.9,35.7,35.2,32.2,33.0,32.1,25.9,26.1,28.7,28.5,31.7
LT-Debt to Equity Ratio,0.31,0.30,0.29,0.30,0.24,0.23,0.28,0.29,0.28,0.34,0.33,0.34,0.41,0.40,0.40,0.50,0.47,0.45,0.41,0.38,0.38,0.36,0.62,0.59,0.58,0.57,0.58,0.58,0.56,0.56,0.55,0.55,0.55,0.62,0.62,0.79,0.76,0.69,0.54,0.46,0.45,0.42,0.37,0.33,0.32,0.35,0.36,0.38,0.37,0.34,0.34,0.36,0.34,0.31,0.30,0.29,0.83,0.74,0.77,0.90,1.06,1.04,0.87,0.82,0.85,0.87,0.79,1.11,1.06,0.89,0.98,1.10,0.91,0.86,0.87,0.83,0.70
Low PE Ratio,22.4,23.2,16.6,14.0,11.7,9.7,9.2,9.3,10.2,11.2,10.7,10.9,11.3,11.3,12.6,12.3,11.8,13.1,11.0,11.0,12.0,11.8,14.9,14.8,13.4,12.1,9.6,10.1,11.6,12.6,14.6,17.0,17.6,0.0,0.0,0.0,0.0,14.8,15.0,14.6,14.5,15.0,14.6,13.9,14.8,13.8,14.8,15.9,13.7,12.7,13.9,13.2,14.0,14.6,13.2,12.7,12.8,12.6,13.4,11.1,14.4,21.0,17.6,13.9,12.3,11.4,13.0,12.3,10.1,9.4,10.2,9.7,12.0,11.5,11.1,13.7,4.1
Net Income from Total Operations (YTD),121.9,218.1,363.6,514.6,219.2,436.0,606.4,767.6,172.3,400.8,591.9,744.0,166.0,384.0,555.0,714.0,192.0,391.0,639.0,801.0,123.0,307.0,406.0,568.0,139.0,344.0,494.0,620.0,56.0,211.0,304.0,387.0,43.0,-302.0,-154.0,-60.0,84.0,236.0,378.0,500.0,115.0,298.0,500.0,683.0,95.0,326.0,483.0,596.0,184.0,464.0,554.0,711.0,194.0,443.0,634.0,834.0,100.0,350.0,467.0,538.0,-111.0,35.0,194.0,426.0,30.0,302.0,564.0,769.0,228.0,568.0,879.0,"1,095.0",13.0,375.0,714.0,"1,064.0","2,445.0"
Normalized Close PE Ratio,25.8,20.9,16.9,13.2,11.5,12.3,12.7,12.2,13.6,13.0,13.9,14.3,13.7,14.8,16.2,12.7,14.5,14.9,10.7,12.5,11.6,13.8,15.9,16.9,14.3,11.7,10.5,12.9,12.4,15.1,14.5,17.8,20.3,14.5,10.0,10.8,9.7,18.1,17.6,20.2,17.5,17.9,16.3,16.5,17.9,14.8,14.7,16.0,14.4,13.8,15.2,13.8,15.6,17.6,14.9,13.0,11.9,11.3,10.7,9.7,9.1,12.9,21.8,20.0,22.6,16.6,17.1,18.2,16.3,14.3,10.5,12.2,14.0,14.9,15.7,17.5,14.7
Normalized High PE Ratio,28.1,22.6,17.9,15.0,12.8,12.3,12.9,12.7,14.0,14.3,13.9,15.9,15.8,15.8,17.4,15.0,14.7,16.4,15.0,16.5,17.3,16.6,18.7,19.1,19.3,17.8,17.3,18.1,15.6,17.2,19.0,20.6,22.1,14.5,14.1,13.6,13.5,22.4,19.4,20.3,19.3,18.5,17.2,16.6,18.7,17.6,18.5,20.6,16.4,14.4,15.6,15.0,16.1,18.2,16.3,15.2,16.2,16.3,14.6,16.2,17.3,20.5,22.6,21.3,23.1,19.9,17.4,18.3,16.5,15.4,14.6,14.2,14.3,15.2,16.4,17.7,16.2
Normalized Low PE Ratio,22.4,18.0,13.8,12.0,10.3,9.7,9.2,9.3,10.2,11.2,10.7,10.9,11.3,11.3,12.6,10.8,10.4,11.3,9.6,10.6,11.1,11.2,12.7,13.0,12.1,11.0,9.5,10.0,9.7,10.3,11.8,13.4,14.4,9.2,9.6,8.9,8.9,14.7,14.0,13.4,13.4,14.0,13.8,13.2,14.0,13.3,14.2,15.4,12.7,11.7,12.6,12.1,13.4,14.0,12.5,11.8,11.3,11.1,9.9,8.2,7.0,8.3,10.5,9.6,12.3,11.4,13.0,12.3,10.1,9.4,10.2,9.7,9.7,9.4,9.1,10.8,10.1
Normalized ROA,5.2,6.6,8.6,10.2,11.3,11.9,12.2,12.4,11.4,11.3,11.7,11.6,11.3,11.1,10.8,11.9,11.8,11.6,12.8,11.3,10.6,10.1,7.6,7.3,7.1,7.3,7.3,6.8,7.1,6.6,6.0,5.8,5.4,8.3,8.8,9.8,9.2,5.8,6.1,6.4,6.6,6.9,7.5,8.0,7.7,8.3,7.9,7.1,8.3,8.4,7.5,7.7,7.3,6.7,7.7,7.1,5.3,5.2,6.0,4.9,5.0,3.9,3.0,4.3,4.1,5.2,5.6,5.1,6.4,6.8,7.5,7.6,7.3,7.5,7.3,8.5,10.4
Normalized ROCI,9.3,11.4,14.5,18.0,20.5,21.1,22.4,23.2,22.4,22.0,22.1,22.4,21.3,21.1,20.4,21.7,21.9,21.3,22.2,21.0,20.4,19.0,13.8,13.2,13.0,13.1,13.3,12.7,13.6,12.4,11.0,10.3,9.7,16.4,16.8,20.1,18.7,11.7,13.0,12.8,13.3,13.8,14.6,15.0,14.7,15.9,15.4,14.6,16.9,17.1,15.7,17.7,16.3,14.8,16.2,16.8,10.5,10.4,12.2,11.4,11.6,8.8,6.7,9.0,8.5,10.7,11.5,10.0,12.5,13.5,14.9,16.0,17.3,17.3,15.7,18.2,19.6
Normalized ROE,12.2,14.8,18.7,23.4,25.4,26.0,28.7,29.9,28.8,29.5,29.4,30.0,30.1,29.5,28.5,32.5,32.3,31.0,31.3,28.9,28.1,25.8,22.2,20.9,20.5,20.6,21.1,20.2,21.3,19.4,17.1,15.9,15.0,26.6,27.2,35.9,33.0,19.8,20.1,18.6,19.2,19.6,19.9,20.0,19.5,21.4,20.9,20.2,23.1,23.0,21.0,24.0,21.9,19.5,21.0,21.6,19.2,18.1,21.5,21.7,23.9,17.9,12.5,16.3,15.8,20.1,20.5,21.1,25.7,25.5,29.6,33.7,33.0,32.1,29.5,33.3,33.3
Return on Assets (ROA),5.2,5.1,7.1,8.7,10.0,11.9,12.2,12.4,11.4,11.3,11.7,11.6,11.3,11.1,10.8,10.4,10.4,10.0,11.2,10.8,9.8,9.5,6.5,6.4,6.4,6.6,7.3,6.8,5.9,5.4,4.9,4.6,4.4,-1.4,-0.8,-0.8,-0.2,5.7,5.7,5.9,6.2,6.5,7.1,7.6,7.3,8.0,7.6,6.9,7.7,7.7,6.8,7.1,7.0,6.5,7.3,6.6,4.7,4.6,4.4,3.7,2.4,1.5,1.8,3.0,4.1,5.2,5.6,5.1,6.4,6.8,7.5,7.6,5.9,6.1,6.0,6.7,22.7
Return on Capital Invested (ROCI),9.3,8.9,12.1,15.5,18.0,21.1,22.4,23.2,22.4,22.0,22.1,22.4,21.3,21.1,20.4,19.0,19.3,18.4,19.4,20.2,18.9,18.0,11.7,11.5,11.8,12.0,13.2,12.6,11.4,10.2,8.9,8.1,7.9,-2.9,-1.6,-1.6,-0.5,11.6,12.2,11.8,12.3,12.9,13.8,14.4,14.0,15.3,14.8,14.1,15.6,15.7,14.3,16.2,15.7,14.3,15.3,15.6,9.2,9.2,9.0,8.5,5.6,3.4,4.0,6.2,8.5,10.7,11.5,10.0,12.5,13.5,14.9,16.0,14.0,14.0,12.9,14.3,42.9
Return on Stock Equity (ROE),12.2,11.5,15.5,20.1,22.3,26.0,28.7,29.9,28.8,29.5,29.4,30.0,30.1,29.5,28.5,28.5,28.4,26.7,27.3,27.8,26.2,24.4,18.9,18.3,18.6,18.8,20.9,20.0,17.8,15.9,13.9,12.6,12.3,0.0,0.0,0.0,0.0,19.7,18.7,17.2,17.9,18.4,18.9,19.1,18.5,20.6,20.1,19.5,21.3,21.1,19.2,22.0,21.0,18.7,19.8,20.1,16.9,16.0,15.9,16.1,11.6,7.0,7.5,11.4,15.8,20.1,20.5,21.1,25.7,25.5,29.6,33.7,26.7,26.1,24.1,26.2,73.0
Revenue (YTD),"1,476.9","3,096.2","4,671.5","6,331.2","1,740.8","3,611.2","5,335.3","7,057.7","1,748.8","3,662.4","5,463.6","7,218.1","1,776.6","3,721.0","5,533.0","7,379.0","1,913.0","3,917.0","5,721.0","7,510.0","1,803.0","3,750.0","5,704.0","7,757.0","2,087.0","4,297.0","6,375.0","8,629.0","2,099.0","4,263.0","6,262.0","8,169.0","1,875.0","4,009.0","6,077.0","8,067.0","2,071.0","4,375.0","6,581.0","8,756.0","2,264.0","4,693.0","7,102.0","9,513.0","2,493.0","5,149.0","7,696.0","10,201.0","2,638.0","5,462.0","8,264.0","11,037.0","2,917.0","6,090.0","8,332.0","11,206.0","3,720.0","8,436.0","12,661.0","15,849.0","2,783.0","5,898.0","9,123.0","12,239.0","3,126.0","6,584.0","10,044.0","13,423.0","3,533.0","7,519.0","11,368.0","14,885.0","3,752.0","7,707.0","11,552.0","15,200.0","3,331.0"
accounts payable,929.9,989.4,971.5,517.8,"1,059.4","1,077.9","1,096.3",583.4,"1,066.8","1,080.4","1,071.4",601.9,"1,055.4","1,095.0","1,081.0",646.0,"1,212.0","1,245.0","1,164.0",630.0,"1,202.0","1,242.0","1,379.0",755.0,"1,403.0","1,463.0","1,436.0",764.0,"1,374.0","1,389.0","1,368.0",610.0,"1,333.0","1,411.0","1,392.0","1,378.0","1,429.0","1,527.0","1,560.0","1,504.0","1,594.0","1,641.0","1,663.0","1,651.0","1,751.0","1,590.0","1,789.0","1,776.0","1,778.0","1,939.0","2,075.0","1,081.0","2,078.0","2,145.0","2,111.0","2,150.0","3,003.0","3,316.0","3,128.0","2,066.0","2,414.0","2,513.0","2,720.0","1,384.0","2,685.0","2,724.0","2,860.0","1,626.0","3,045.0","3,199.0","3,105.0","1,612.0","3,133.0","3,160.0","3,105.0","1,620.0","2,949.0"
accounts receivable,"1,221.4","1,294.8","1,229.2","1,228.9","1,413.0","1,402.6","1,319.8","1,245.1","1,339.2","1,388.8","1,278.6","1,225.6","1,344.8","1,376.0","1,301.0","1,353.0","1,443.0","1,509.0","1,354.0","1,366.0","1,438.0","1,500.0","1,592.0","1,594.0","1,713.0","1,724.0","1,652.0","1,563.0","1,617.0","1,637.0","1,534.0","1,416.0","1,533.0","1,640.0","1,559.0","1,486.0","1,649.0","1,773.0","1,689.0","1,631.0","1,794.0","1,845.0","1,809.0","1,797.0","1,920.0","1,987.0","1,968.0","1,871.0","2,038.0","2,248.0","2,240.0","1,976.0","2,434.0","2,583.0","2,497.0","2,398.0","3,433.0","3,907.0","3,453.0","2,804.0","2,713.0","2,847.0","2,853.0","2,628.0","2,809.0","2,781.0","2,958.0","2,778.0","3,126.0","3,345.0","3,088.0","2,830.0","3,236.0","3,310.0","3,190.0","2,813.0","2,824.0"
accrued expenses,0.0,0.0,0.0,0.0,0.0,0.0,0.0,0.0,0.0,0.0,0.0,0.0,0.0,0.0,0.0,0.0,0.0,0.0,0.0,0.0,0.0,0.0,0.0,0.0,0.0,0.0,0.0,0.0,0.0,0.0,0.0,0.0,0.0,0.0,0.0,0.0,0.0,0.0,0.0,0.0,0.0,0.0,0.0,0.0,0.0,0.0,0.0,0.0,0.0,0.0,0.0,0.0,0.0,0.0,0.0,0.0,0.0,0.0,0.0,0.0,0.0,0.0,0.0,0.0,0.0,0.0,0.0,0.0,0.0,0.0,0.0,0.0,0.0,0.0,0.0,0.0,0.0
accrued liabilities,0.0,0.0,0.0,516.6,0.0,0.0,0.0,520.1,0.0,0.0,0.0,503.6,0.0,0.0,0.0,564.0,0.0,0.0,0.0,634.0,0.0,0.0,0.0,675.0,0.0,0.0,0.0,618.0,0.0,0.0,0.0,649.0,0.0,0.0,0.0,0.0,0.0,0.0,0.0,0.0,0.0,0.0,0.0,0.0,0.0,0.0,0.0,0.0,0.0,0.0,0.0,"1,009.0",0.0,0.0,0.0,0.0,0.0,0.0,0.0,688.0,0.0,0.0,0.0,"1,231.0",0.0,0.0,0.0,"1,320.0",0.0,0.0,0.0,723.0,0.0,0.0,0.0,"1,158.0",0.0
accumulated depreciation,"3,321.9","3,340.7","3,409.5","3,420.4","3,251.6","3,590.3","3,629.0","3,629.2","3,683.1","3,739.8","3,788.3","3,774.7","3,772.8","3,806.0","3,870.0","3,903.0","3,938.0","4,013.0","3,742.0","3,834.0","3,860.0","3,916.0","3,896.0","3,926.0","3,983.0","4,042.0","4,078.0","4,148.0","4,223.0","4,259.0","4,352.0","4,401.0","4,466.0","4,610.0","4,626.0","4,638.0","4,741.0","4,872.0","4,936.0","5,054.0","5,108.0","5,149.0","5,248.0","5,384.0","5,400.0","5,393.0","5,473.0","5,498.0","5,582.0","5,694.0","5,761.0","5,848.0","5,933.0","6,045.0","5,364.0","5,407.0","5,563.0","6,373.0","5,266.0","5,245.0","5,242.0","5,411.0","5,514.0","5,559.0","5,549.0","5,481.0","5,694.0","5,729.0","5,866.0","5,947.0","5,868.0","5,893.0","6,023.0","6,006.0","6,092.0","6,142.0","4,581.0"
acquisitions,0.0,0.0,0.0,-33.9,0.0,0.0,0.0,-6.6,0.0,0.0,0.0,-12.6,0.0,0.0,0.0,-363.0,0.0,0.0,-198.0,-390.0,-89.0,-113.0,"-1,290.0","-1,343.0",-106.0,-109.0,-114.0,-115.0,-8.0,-8.0,-8.0,-10.0,-9.0,-9.0,-12.0,-22.0,0.0,0.0,0.0,-3.0,-62.0,-65.0,-67.0,-67.0,0.0,-25.0,-33.0,-91.0,-17.0,-138.0,-400.0,-402.0,-148.0,-172.0,-212.0,-231.0,"-1,571.0","-1,584.0","-1,405.0","-1,448.0",-11.0,-21.0,-24.0,-26.0,-16.0,-18.0,-18.0,-34.0,-10.0,-52.0,-56.0,-56.0,-44.0,-52.0,-53.0,-122.0,940.0
additional paid-in capital,308.3,66.8,65.9,67.5,69.2,70.0,72.4,81.3,88.7,90.9,92.2,96.6,97.6,99.0,101.0,99.0,103.0,108.0,108.0,105.0,106.0,104.0,105.0,104.0,107.0,107.0,105.0,102.0,106.0,109.0,109.0,109.0,113.0,120.0,125.0,126.0,130.0,131.0,133.0,158.0,187.0,199.0,205.0,249.0,326.0,339.0,346.0,352.0,362.0,380.0,392.0,408.0,442.0,497.0,534.0,553.0,554.0,561.0,573.0,580.0,514.0,522.0,562.0,609.0,580.0,597.0,679.0,725.0,742.0,759.0,771.0,783.0,797.0,815.0,851.0,870.0,888.0
adjustments to revenue,0.0,0.0,0.0,0.0,0.0,0.0,0.0,0.0,0.0,0.0,0.0,0.0,0.0,0.0,0.0,0.0,0.0,0.0,0.0,0.0,0.0,0.0,0.0,0.0,0.0,0.0,0.0,0.0,0.0,0.0,0.0,0.0,0.0,0.0,0.0,0.0,0.0,0.0,0.0,0.0,0.0,0.0,0.0,0.0,0.0,0.0,0.0,0.0,0.0,0.0,0.0,0.0,0.0,0.0,0.0,0.0,0.0,0.0,0.0,0.0,0.0,0.0,0.0,0.0,0.0,0.0,0.0,0.0,0.0,0.0,0.0,0.0,0.0,0.0,0.0,0.0,0.0
advertising,0.0,0.0,0.0,0.0,0.0,0.0,0.0,0.0,0.0,0.0,0.0,0.0,0.0,0.0,0.0,0.0,0.0,0.0,0.0,0.0,0.0,0.0,0.0,0.0,0.0,0.0,0.0,0.0,0.0,0.0,0.0,0.0,0.0,0.0,0.0,0.0,0.0,0.0,0.0,0.0,0.0,0.0,0.0,0.0,0.0,0.0,0.0,0.0,0.0,0.0,0.0,0.0,0.0,0.0,0.0,0.0,0.0,0.0,0.0,0.0,0.0,0.0,0.0,0.0,0.0,0.0,0.0,0.0,0.0,0.0,0.0,0.0,0.0,0.0,0.0,0.0,0.0
amortization,0.0,0.0,0.0,0.0,0.0,0.0,0.0,0.0,0.0,0.0,0.0,0.0,0.0,0.0,0.0,0.0,0.0,0.0,0.0,0.0,0.0,0.0,0.0,0.0,0.0,0.0,0.0,0.0,0.0,0.0,0.0,0.0,0.0,0.0,0.0,0.0,0.0,0.0,0.0,0.0,0.0,0.0,0.0,0.0,0.0,0.0,0.0,0.0,0.0,0.0,0.0,0.0,0.0,0.0,0.0,0.0,0.0,0.0,0.0,0.0,0.0,0.0,0.0,0.0,0.0,0.0,0.0,0.0,0.0,0.0,0.0,0.0,0.0,0.0,0.0,0.0,0.0
amortization of intangibles,0.0,0.0,0.0,0.0,0.0,0.0,0.0,0.0,0.0,0.0,0.0,0.0,0.0,0.0,0.0,0.0,0.0,0.0,0.0,0.0,0.0,0.0,0.0,0.0,0.0,0.0,0.0,0.0,0.0,0.0,0.0,0.0,0.0,0.0,0.0,0.0,0.0,0.0,0.0,0.0,0.0,0.0,0.0,0.0,0.0,0.0,0.0,0.0,0.0,0.0,0.0,0.0,0.0,0.0,0.0,0.0,0.0,0.0,0.0,0.0,0.0,0.0,0.0,0.0,0.0,0.0,0.0,0.0,0.0,0.0,0.0,0.0,0.0,0.0,0.0,0.0,0.0
asset turnover,1.0,1.0,1.0,1.1,1.1,1.1,1.2,1.2,1.1,1.1,1.1,1.1,1.1,1.1,1.1,1.1,1.1,1.1,1.1,1.1,1.0,1.0,0.9,1.0,1.0,1.0,0.9,1.0,1.0,1.0,1.0,0.9,0.9,0.9,0.9,1.0,1.0,1.0,1.0,1.1,1.1,1.1,1.1,1.1,1.1,1.1,1.2,1.2,1.2,1.1,1.2,1.2,1.2,1.2,1.1,1.0,1.0,1.0,1.2,1.2,1.0,0.9,0.8,0.8,0.9,0.9,0.9,0.9,1.0,1.0,1.0,1.0,1.0,1.0,1.0,1.0,1.0
auditor name,None,None,None,None,None,None,None,None,None,None,None,None,None,None,None,None,None,None,None,None,None,None,None,None,None,None,None,None,None,None,None,None,None,None,None,None,None,None,None,None,None,None,None,None,None,None,None,None,None,None,None,None,None,None,None,None,None,None,None,None,None,None,None,None,None,None,None,None,None,None,None,None,None,None,None,None,None
auditor report,None,None,None,None,None,None,None,None,None,None,None,None,None,None,None,None,None,None,None,None,None,None,None,None,None,None,None,None,None,None,None,None,None,None,None,None,None,None,None,None,None,None,None,None,None,None,None,None,None,None,None,None,None,None,None,None,None,None,None,None,None,None,None,None,None,None,None,None,None,None,None,None,None,None,None,None,None
basic earnings indicator,Y,Y,Y,Y,Y,Y,Y,Y,Y,Y,Y,Y,Y,Y,Y,Y,Y,Y,Y,Y,Y,Y,Y,Y,Y,Y,Y,Y,Y,Y,Y,Y,Y,Y,Y,Y,Y,Y,Y,Y,Y,Y,Y,Y,Y,Y,Y,Y,Y,Y,Y,Y,Y,Y,Y,Y,Y,Y,Y,Y,Y,Y,Y,Y,Y,Y,Y,Y,Y,Y,Y,Y,Y,Y,Y,Y,Y
book value per share,11.84,12.11,12.64,12.34,13.32,13.88,13.47,13.21,13.22,13.30,13.97,13.55,13.61,13.74,13.94,14.09,14.70,15.27,16.49,16.45,16.10,16.91,17.27,17.84,18.01,18.55,18.60,18.41,17.90,18.20,18.43,18.26,17.99,16.09,16.37,12.69,13.17,14.32,14.84,17.03,17.32,17.83,18.95,20.77,20.67,20.09,19.86,18.47,19.40,21.05,21.08,19.71,20.93,22.46,24.45,25.34,26.66,28.17,25.60,20.29,17.20,19.25,21.19,22.65,21.60,20.89,23.76,22.68,23.81,25.74,23.71,21.39,21.62,22.67,25.18,26.46,33.56
building and improvements,0.0,0.0,0.0,"1,102.8",0.0,0.0,0.0,"1,129.8",0.0,0.0,0.0,"1,184.8",0.0,0.0,0.0,"1,188.0",0.0,0.0,0.0,"1,194.0",0.0,0.0,0.0,"1,058.0",0.0,0.0,0.0,"1,076.0",0.0,0.0,0.0,"1,099.0",0.0,0.0,0.0,"1,126.0",0.0,0.0,0.0,"1,189.0",0.0,0.0,0.0,"1,224.0",0.0,0.0,0.0,0.0,0.0,0.0,0.0,"1,322.0",0.0,0.0,0.0,"1,272.0",0.0,0.0,0.0,"1,416.0",0.0,0.0,0.0,"1,476.0",0.0,0.0,0.0,"1,467.0",0.0,0.0,0.0,"1,482.0",0.0,0.0,0.0,"1,568.0",0.0
capital lease obligations,0.0,0.0,0.0,28.4,0.0,0.0,0.0,28.7,0.0,0.0,0.0,27.8,0.0,0.0,0.0,41.0,0.0,0.0,0.0,34.0,0.0,0.0,0.0,10.0,0.0,0.0,0.0,10.0,0.0,0.0,0.0,10.0,0.0,0.0,0.0,10.0,0.0,0.0,0.0,0.0,0.0,0.0,0.0,0.0,0.0,0.0,0.0,0.0,0.0,0.0,0.0,0.0,0.0,0.0,0.0,0.0,0.0,0.0,0.0,0.0,0.0,0.0,0.0,0.0,0.0,0.0,0.0,0.0,0.0,0.0,0.0,0.0,0.0,0.0,0.0,0.0,0.0
cash as % of revenue,2.0,0.9,2.7,1.0,1.1,1.5,1.7,1.5,1.3,1.7,1.5,1.0,1.5,1.4,1.2,1.7,1.9,2.0,3.5,1.7,1.1,1.3,2.2,2.0,1.8,1.7,1.6,1.3,0.9,1.4,1.9,1.3,0.9,1.7,2.0,1.5,0.9,1.8,3.3,5.7,5.2,6.4,6.0,7.5,6.6,4.7,4.8,4.6,4.0,4.0,2.9,4.1,1.6,1.7,1.9,4.7,2.4,1.9,3.4,6.4,3.6,7.9,7.3,8.6,5.5,6.1,7.1,10.0,5.8,6.8,8.8,9.8,6.5,6.7,9.2,8.6,13.7
cash at beginning of period,111.9,111.9,111.9,111.9,62.1,62.1,62.1,62.1,105.6,105.6,105.6,105.6,69.6,70.0,70.0,70.0,129.0,129.0,129.0,129.0,128.0,128.0,128.0,128.0,158.0,158.0,158.0,158.0,111.0,111.0,111.0,111.0,108.0,108.0,108.0,108.0,117.0,117.0,117.0,117.0,499.0,499.0,499.0,499.0,659.0,659.0,659.0,659.0,466.0,466.0,466.0,466.0,455.0,455.0,443.0,443.0,526.0,526.0,526.0,526.0,"1,021.0","1,021.0","1,021.0","1,021.0","1,057.0","1,057.0","1,057.0","1,057.0","1,341.0","1,341.0","1,341.0","1,341.0","1,457.0","1,457.0","1,457.0","1,457.0","1,306.0"
cash end of period,116.9,52.5,165.7,62.1,73.2,100.6,118.3,105.6,89.0,121.9,104.4,69.6,109.5,105.0,90.0,129.0,141.0,151.0,264.0,128.0,82.0,96.0,164.0,158.0,145.0,144.0,135.0,111.0,78.0,118.0,159.0,108.0,72.0,136.0,163.0,117.0,77.0,153.0,283.0,499.0,466.0,583.0,561.0,709.0,640.0,470.0,489.0,466.0,416.0,419.0,316.0,455.0,182.0,197.0,227.0,526.0,298.0,266.0,516.0,"1,021.0",531.0,"1,052.0",898.0,"1,057.0",689.0,784.0,930.0,"1,341.0",796.0,982.0,"1,301.0","1,457.0",978.0,"1,017.0","1,392.0","1,306.0","2,021.0"
cash flow,572.4,478.4,516.9,849.8,947.1,"1,067.7","1,092.6","1,119.2","1,072.3","1,084.0","1,104.7","1,106.6","1,100.3","1,089.8","1,069.7","1,087.0","1,113.0","1,094.0","1,171.0","1,184.0","1,115.0","1,100.0",951.0,987.0,"1,003.0","1,024.0","1,075.0","1,067.0",984.0,934.0,877.0,834.0,821.0,321.0,376.0,338.0,379.0,876.0,870.0,894.0,925.0,956.0,"1,008.0","1,071.0","1,043.0","1,091.0","1,054.0",968.0,"1,057.0","1,106.0","1,039.0","1,091.0","1,101.0","1,070.0","1,171.0","1,214.0","1,120.0","1,121.0","1,047.0","1,101.0",890.0,786.0,828.0,906.0,"1,047.0","1,173.0","1,276.0","1,239.0","1,554.0","1,741.0","1,906.0","1,562.0","1,348.0","1,365.0","1,393.0","1,529.0","3,950.0"
cash flow per share,2.69,2.25,2.43,4.10,4.59,5.26,5.57,5.76,5.67,5.81,6.02,6.04,6.10,6.08,6.01,6.10,6.28,6.18,6.61,6.76,6.42,6.34,5.47,5.67,5.76,5.89,6.37,6.34,5.84,5.55,5.21,4.94,4.86,1.90,2.22,1.99,2.23,5.16,5.12,5.23,5.39,5.57,5.87,6.23,6.08,6.42,6.31,5.86,6.38,6.70,6.29,6.65,6.71,6.52,7.15,7.41,6.83,6.83,6.38,6.70,5.41,4.77,4.96,5.47,6.29,7.10,7.83,7.73,9.83,11.05,12.34,10.28,8.85,8.94,9.08,9.96,27.69
cash from discontinued financing activities,0.0,0.0,0.0,0.0,0.0,0.0,0.0,0.0,0.0,0.0,0.0,0.0,0.0,0.0,0.0,0.0,0.0,0.0,0.0,0.0,0.0,0.0,0.0,0.0,0.0,0.0,0.0,0.0,0.0,0.0,0.0,0.0,0.0,0.0,0.0,0.0,0.0,0.0,0.0,0.0,0.0,0.0,0.0,0.0,0.0,0.0,0.0,0.0,0.0,0.0,0.0,0.0,0.0,0.0,0.0,0.0,0.0,0.0,0.0,0.0,0.0,0.0,0.0,0.0,0.0,0.0,0.0,0.0,0.0,0.0,0.0,0.0,0.0,0.0,0.0,0.0,0.0
cash from discontinued investing activities,0.0,0.0,0.0,0.0,0.0,0.0,0.0,0.0,0.0,0.0,0.0,0.0,0.0,0.0,0.0,0.0,0.0,0.0,0.0,0.0,0.0,0.0,0.0,0.0,0.0,0.0,0.0,0.0,0.0,0.0,0.0,0.0,0.0,0.0,0.0,0.0,0.0,0.0,0.0,0.0,0.0,0.0,0.0,0.0,0.0,0.0,0.0,0.0,0.0,0.0,0.0,0.0,0.0,0.0,-13.0,27.0,-3.0,0.0,0.0,0.0,0.0,0.0,0.0,0.0,0.0,0.0,0.0,0.0,0.0,0.0,0.0,0.0,0.0,0.0,0.0,0.0,-1.0
cash per share,0.55,0.25,0.78,0.30,0.36,0.50,0.60,0.54,0.47,0.65,0.57,0.38,0.61,0.59,0.51,0.72,0.79,0.85,1.49,0.73,0.47,0.55,0.94,0.91,0.83,0.83,0.80,0.66,0.46,0.70,0.94,0.64,0.43,0.80,0.96,0.69,0.45,0.90,1.67,2.92,2.72,3.40,3.27,4.12,3.73,2.77,2.93,2.82,2.51,2.54,1.91,2.77,1.11,1.20,1.39,3.21,1.82,1.62,3.14,6.22,3.23,6.38,5.38,6.38,4.14,4.75,5.70,8.36,5.03,6.23,8.42,9.59,6.42,6.66,9.08,8.50,14.17
common par,242.1,484.3,484.3,484.3,484.3,484.3,484.3,484.3,484.3,484.3,484.3,484.3,484.3,484.0,484.0,484.0,484.0,484.0,484.0,484.0,484.0,484.0,484.0,484.0,484.0,484.0,484.0,484.0,484.0,484.0,484.0,484.0,484.0,484.0,484.0,484.0,484.0,484.0,484.0,484.0,484.0,484.0,484.0,484.0,484.0,484.0,484.0,484.0,484.0,484.0,484.0,484.0,484.0,484.0,484.0,484.0,484.0,484.0,484.0,484.0,484.0,484.0,484.0,484.0,484.0,484.0,484.0,484.0,484.0,484.0,484.0,484.0,484.0,484.0,484.0,484.0,484.0
common stock equity,"2,515.4","2,573.3","2,689.9","2,557.0","2,746.6","2,815.7","2,641.0","2,569.2","2,499.8","2,481.0","2,562.5","2,482.6","2,452.8","2,464.0","2,483.0","2,509.0","2,607.0","2,703.0","2,921.0","2,880.0","2,797.0","2,935.0","3,001.0","3,106.0","3,137.0","3,226.0","3,139.0","3,097.0","3,014.0","3,062.0","3,103.0","3,080.0","3,037.0","2,725.0","2,773.0","2,150.0","2,236.0","2,430.0","2,522.0","2,911.0","2,972.0","3,060.0","3,255.0","3,572.0","3,549.0","3,413.0","3,318.0","3,053.0","3,214.0","3,477.0","3,483.0","3,234.0","3,436.0","3,685.0","4,003.0","4,151.0","4,374.0","4,624.0","4,204.0","3,333.0","2,830.0","3,175.0","3,538.0","3,753.0","3,592.0","3,450.0","3,874.0","3,638.0","3,766.0","4,054.0","3,662.0","3,249.0","3,293.0","3,461.0","3,861.0","4,063.0","4,787.0"
construction in progress,0.0,0.0,0.0,150.2,0.0,0.0,0.0,194.8,0.0,0.0,0.0,212.8,0.0,0.0,0.0,173.0,0.0,0.0,0.0,208.0,0.0,0.0,0.0,281.0,0.0,0.0,0.0,319.0,0.0,0.0,0.0,177.0,0.0,0.0,0.0,143.0,0.0,0.0,0.0,74.0,0.0,0.0,0.0,110.0,0.0,0.0,0.0,0.0,0.0,0.0,0.0,213.0,0.0,0.0,0.0,166.0,0.0,0.0,0.0,232.0,0.0,0.0,0.0,163.0,0.0,0.0,0.0,232.0,0.0,0.0,0.0,220.0,0.0,0.0,0.0,271.0,0.0
cost in excess,0.0,0.0,0.0,0.0,0.0,0.0,0.0,0.0,0.0,0.0,0.0,0.0,0.0,0.0,0.0,0.0,0.0,0.0,0.0,0.0,0.0,0.0,0.0,0.0,0.0,0.0,0.0,0.0,0.0,0.0,0.0,0.0,0.0,0.0,0.0,0.0,0.0,0.0,0.0,0.0,0.0,0.0,0.0,0.0,0.0,0.0,0.0,0.0,"1,177.0","1,244.0","1,319.0","1,396.0","1,447.0","1,466.0","1,462.0","1,476.0","2,824.0","2,874.0","2,711.0","2,641.0","2,544.0","2,696.0","2,798.0","2,784.0","2,687.0","2,526.0","2,725.0","2,719.0","2,814.0","2,871.0","2,698.0","2,660.0","2,729.0","2,644.0","2,706.0","2,761.0","2,694.0"
cost of sales,990.3,"1,066.9","1,040.7",749.9,"1,108.1","1,192.2","1,112.6",779.1,"1,150.4","1,211.3","1,157.4",798.8,"1,171.5","1,234.0","1,167.0",799.0,"1,234.0","1,275.0","1,169.0",769.0,"1,194.0","1,252.0","1,298.0",971.0,"1,366.0","1,439.0","1,383.0","1,146.0","1,436.0","1,454.0","1,372.0",875.0,"1,288.0","1,426.0","1,390.0",962.0,"1,440.0","1,545.0","1,470.0","1,067.0","1,538.0","1,620.0","1,612.0","1,235.0","1,653.0","1,743.0","1,706.0","1,371.0","1,782.0","1,841.0","1,889.0","1,524.0","1,986.0","2,122.0","1,859.0","1,562.0","2,565.0","2,994.0","2,840.0","1,584.0","1,836.0","2,017.0","2,109.0","1,577.0","2,065.0","2,191.0","2,224.0","1,734.0","2,127.0","2,417.0","2,353.0","2,184.0","2,229.0","2,352.0","2,288.0","2,200.0","1,947.0"
cost of sales with depreciation,911.8,987.9,962.1,"1,003.7","1,028.1","1,109.3","1,029.4","1,045.3","1,067.2","1,127.9","1,072.1","1,073.1","1,086.8","1,146.0","1,079.0","1,085.0","1,145.0","1,186.0","1,082.0","1,063.0","1,103.0","1,165.0","1,206.0","1,245.0","1,254.0","1,327.0","1,271.0","1,482.0","1,324.0","1,342.0","1,261.0","1,210.0","1,189.0","1,325.0","1,291.0","1,261.0","1,343.0","1,445.0","1,370.0","1,364.0","1,441.0","1,522.0","1,516.0","1,526.0","1,558.0","1,650.0","1,614.0","1,651.0","1,691.0","1,747.0","1,791.0","1,807.0","1,885.0","2,017.0","1,762.0","1,846.0","2,424.0","2,829.0","2,701.0","2,029.0","1,718.0","1,898.0","1,989.0","1,934.0","1,944.0","2,076.0","2,108.0","2,086.0","2,127.0","2,417.0","2,353.0","2,184.0","2,229.0","2,352.0","2,288.0","2,200.0","1,947.0"
cumulative translation adjustments,-38.3,-14.5,-2.3,-38.6,6.4,23.4,4.1,3.8,-4.9,-14.9,-13.4,-9.7,-67.7,-89.0,-99.0,-136.0,-147.0,-146.0,-120.0,-122.0,-193.0,-172.0,-143.0,-162.0,-218.0,-251.0,-307.0,-282.0,-365.0,-383.0,-368.0,-413.0,0.0,0.0,-448.0,-340.0,0.0,0.0,0.0,0.0,0.0,0.0,0.0,0.0,0.0,0.0,0.0,0.0,0.0,0.0,0.0,0.0,0.0,0.0,0.0,0.0,0.0,0.0,0.0,0.0,0.0,0.0,0.0,0.0,0.0,0.0,0.0,0.0,0.0,0.0,0.0,0.0,0.0,0.0,0.0,0.0,0.0
current assets per share,10.75,10.64,10.88,10.47,11.89,12.09,12.11,11.70,12.70,13.15,12.83,12.53,13.69,13.83,13.54,14.51,15.39,15.88,15.33,15.19,15.69,16.01,18.07,17.59,18.24,18.35,18.62,18.39,18.77,18.64,17.72,16.02,16.83,18.27,18.00,17.38,18.24,19.58,19.84,20.69,21.59,22.67,22.30,23.57,24.52,23.88,24.39,24.32,25.20,27.35,27.51,27.99,28.80,30.18,33.08,43.57,42.35,43.21,40.06,38.65,35.08,38.94,37.42,36.10,35.60,35.64,38.68,44.01,44.79,45.96,44.94,44.07,45.60,46.83,50.71,50.24,54.16
current defered income taxes,0.0,0.0,0.0,117.4,0.0,0.0,0.0,119.5,0.0,0.0,0.0,116.2,0.0,0.0,0.0,118.0,0.0,0.0,0.0,146.0,0.0,0.0,0.0,165.0,0.0,0.0,0.0,155.0,0.0,0.0,0.0,155.0,0.0,222.0,215.0,219.0,0.0,0.0,0.0,254.0,0.0,0.0,0.0,306.0,0.0,0.0,0.0,345.0,0.0,0.0,0.0,394.0,0.0,0.0,0.0,418.0,0.0,0.0,0.0,515.0,0.0,0.0,0.0,485.0,0.0,0.0,0.0,451.0,0.0,0.0,0.0,473.0,0.0,0.0,0.0,430.0,0.0
current deferred income taxes,0.0,0.0,0.0,0.0,0.0,0.0,0.0,0.0,0.0,0.0,0.0,0.0,0.0,0.0,0.0,0.0,0.0,0.0,0.0,0.0,0.0,0.0,0.0,0.0,0.0,0.0,0.0,0.0,0.0,0.0,0.0,0.0,0.0,0.0,0.0,0.0,0.0,0.0,0.0,0.0,0.0,0.0,0.0,0.0,0.0,0.0,0.0,0.0,0.0,0.0,0.0,0.0,0.0,0.0,0.0,0.0,0.0,0.0,0.0,0.0,0.0,0.0,0.0,0.0,0.0,0.0,0.0,0.0,0.0,0.0,0.0,0.0,0.0,0.0,0.0,0.0,0.0
current liabilities per share,6.87,6.45,6.06,6.88,7.64,7.46,8.06,8.38,9.80,9.97,9.23,9.65,9.58,9.65,9.30,9.33,10.25,10.12,8.63,10.92,11.77,11.46,13.18,13.69,14.40,14.26,14.58,15.12,15.78,14.89,13.73,11.59,12.25,13.25,12.21,11.33,11.45,12.08,13.16,12.51,13.06,13.90,12.94,12.91,13.52,13.14,13.98,14.21,14.15,15.97,16.66,16.99,17.96,18.06,18.52,28.46,27.37,28.91,27.21,25.63,24.13,24.87,23.17,21.59,20.55,20.42,21.61,22.60,23.71,24.90,24.53,24.37,29.93,29.90,29.28,29.05,26.13
current ratio,1.6,1.7,1.8,1.5,1.6,1.6,1.5,1.4,1.3,1.3,1.4,1.3,1.4,1.4,1.5,1.6,1.5,1.6,1.8,1.4,1.3,1.4,1.4,1.3,1.3,1.3,1.3,1.2,1.2,1.3,1.3,1.4,1.4,1.4,1.5,1.5,1.6,1.6,1.5,1.7,1.7,1.6,1.7,1.8,1.8,1.8,1.7,1.7,1.8,1.7,1.7,1.6,1.6,1.7,1.8,1.5,1.5,1.5,1.5,1.5,1.5,1.6,1.6,1.7,1.7,1.7,1.8,1.9,1.9,1.8,1.8,1.8,1.5,1.6,1.7,1.7,2.1
decrease (increase) in other current liabilities,0.0,0.0,0.0,0.0,0.0,0.0,0.0,0.0,0.0,0.0,0.0,0.0,0.0,0.0,0.0,-3.0,0.0,0.0,0.0,9.0,0.0,0.0,0.0,0.0,0.0,0.0,0.0,0.0,0.0,0.0,0.0,0.0,0.0,0.0,0.0,-28.0,0.0,0.0,0.0,101.0,0.0,0.0,0.0,0.0,0.0,0.0,0.0,79.0,0.0,0.0,0.0,0.0,0.0,0.0,0.0,-101.0,0.0,0.0,0.0,78.0,0.0,0.0,0.0,-22.0,0.0,0.0,0.0,-202.0,16.0,12.0,40.0,39.0,-73.0,-83.0,-90.0,0.0,25.0
decrease (increase) in other working capital,-38.4,22.9,139.4,81.6,-37.8,26.2,125.2,-46.9,-32.6,-90.1,108.7,-18.9,-2.7,54.0,169.0,24.0,27.0,71.0,76.0,-85.0,2.0,82.0,312.0,1.0,-49.0,19.0,118.0,-1.0,-6.0,180.0,462.0,19.0,14.0,672.0,755.0,23.0,35.0,182.0,398.0,0.0,15.0,53.0,212.0,0.0,45.0,0.0,233.0,0.0,-149.0,-131.0,121.0,109.0,-292.0,-214.0,-133.0,-97.0,-54.0,9.0,343.0,-111.0,0.0,0.0,0.0,-49.0,0.0,0.0,0.0,52.0,37.0,-14.0,-8.0,-51.0,-9.0,-19.0,-33.0,-75.0,-33.0
decrease (increase) in payables,0.0,0.0,0.0,123.0,0.0,0.0,0.0,75.8,0.0,0.0,0.0,-22.2,0.0,0.0,0.0,40.0,0.0,0.0,0.0,46.0,0.0,0.0,0.0,77.0,0.0,0.0,0.0,-11.0,0.0,0.0,0.0,-126.0,0.0,0.0,0.0,69.0,0.0,0.0,0.0,66.0,0.0,0.0,0.0,111.0,0.0,0.0,0.0,191.0,0.0,0.0,0.0,65.0,0.0,0.0,0.0,79.0,0.0,0.0,0.0,15.0,0.0,0.0,0.0,-152.0,0.0,0.0,0.0,333.0,10.0,159.0,115.0,22.0,-27.0,103.0,88.0,-168.0,-18.0
deferred income taxes,0.0,0.0,0.0,0.0,0.0,0.0,0.0,0.0,0.0,0.0,0.0,0.0,0.0,0.0,0.0,0.0,0.0,0.0,0.0,0.0,0.0,0.0,0.0,0.0,0.0,0.0,0.0,0.0,0.0,0.0,0.0,0.0,0.0,0.0,0.0,0.0,0.0,0.0,0.0,0.0,0.0,0.0,0.0,0.0,0.0,0.0,0.0,0.0,0.0,0.0,0.0,0.0,0.0,0.0,0.0,0.0,0.0,0.0,0.0,0.0,0.0,0.0,0.0,0.0,0.0,0.0,0.0,0.0,0.0,0.0,0.0,0.0,0.0,0.0,0.0,0.0,0.0
deferred revenues,0.0,0.0,0.0,0.0,0.0,0.0,0.0,0.0,0.0,0.0,0.0,0.0,0.0,0.0,0.0,0.0,0.0,0.0,0.0,0.0,0.0,0.0,0.0,0.0,0.0,0.0,0.0,0.0,0.0,0.0,0.0,0.0,0.0,0.0,0.0,0.0,0.0,0.0,0.0,0.0,0.0,0.0,0.0,0.0,0.0,0.0,0.0,0.0,0.0,0.0,0.0,0.0,0.0,0.0,0.0,0.0,0.0,0.0,0.0,0.0,0.0,0.0,0.0,0.0,0.0,0.0,0.0,0.0,0.0,0.0,0.0,0.0,0.0,0.0,0.0,212.0,0.0
depreciation,0.0,0.0,0.0,335.2,0.0,0.0,0.0,351.6,0.0,0.0,0.0,362.6,0.0,0.0,0.0,373.0,0.0,0.0,0.0,383.0,0.0,0.0,0.0,419.0,0.0,0.0,0.0,447.0,0.0,0.0,0.0,447.0,0.0,0.0,0.0,398.0,0.0,0.0,0.0,394.0,0.0,0.0,0.0,388.0,0.0,0.0,0.0,372.0,0.0,0.0,0.0,380.0,0.0,0.0,0.0,380.0,0.0,0.0,0.0,563.0,0.0,0.0,0.0,480.0,0.0,0.0,0.0,470.0,117.0,236.0,352.0,467.0,118.0,232.0,348.0,465.0,107.0
depreciation (unrecognized),78.5,79.0,78.6,81.4,80.0,82.9,83.2,85.4,83.2,83.4,85.3,88.3,84.7,88.0,88.0,87.0,89.0,89.0,87.0,89.0,91.0,87.0,92.0,96.0,93.0,94.0,94.0,93.0,94.0,94.0,93.0,94.0,91.0,92.0,92.0,91.0,90.0,92.0,93.0,90.0,90.0,90.0,88.0,89.0,87.0,85.0,84.0,84.0,82.0,84.0,85.0,86.0,87.0,90.0,82.0,82.0,107.0,128.0,105.0,88.0,88.0,88.0,88.0,90.0,89.0,85.0,86.0,86.0,86.0,88.0,86.0,86.0,89.0,87.0,89.0,90.0,81.0
domestic sales,0.0,0.0,0.0,0.0,0.0,0.0,0.0,0.0,0.0,0.0,0.0,0.0,0.0,0.0,0.0,0.0,0.0,0.0,0.0,0.0,0.0,0.0,0.0,0.0,0.0,0.0,0.0,0.0,0.0,0.0,0.0,0.0,0.0,0.0,0.0,0.0,0.0,0.0,0.0,0.0,0.0,0.0,0.0,0.0,0.0,0.0,0.0,0.0,0.0,0.0,0.0,0.0,0.0,0.0,0.0,0.0,0.0,0.0,0.0,0.0,0.0,0.0,0.0,0.0,0.0,0.0,0.0,0.0,0.0,0.0,0.0,0.0,0.0,0.0,0.0,0.0,0.0
earnings from equity interest,0.0,0.0,0.0,0.0,0.0,0.0,0.0,0.0,0.0,0.0,0.0,0.0,0.0,0.0,0.0,0.0,0.0,0.0,0.0,0.0,0.0,0.0,0.0,28.0,0.0,0.0,0.0,39.0,0.0,0.0,0.0,15.0,0.0,0.0,0.0,-1.0,0.0,0.0,0.0,0.0,0.0,0.0,0.0,21.0,0.0,0.0,0.0,0.0,0.0,0.0,0.0,0.0,0.0,0.0,0.0,0.0,0.0,0.0,0.0,0.0,0.0,0.0,0.0,0.0,0.0,0.0,0.0,0.0,0.0,0.0,0.0,0.0,0.0,0.0,0.0,0.0,0.0
earnings period indicator,Q,S,N,F,Q,S,N,F,Q,S,N,F,Q,S,N,F,Q,S,N,F,Q,S,N,F,Q,S,N,F,Q,S,N,F,Q,S,N,F,Q,S,N,F,Q,S,N,F,Q,S,N,F,Q,S,N,F,Q,S,N,F,Q,S,N,F,Q,S,N,F,Q,S,N,F,Q,S,N,F,Q,S,N,F,Q
effect exchange rate changes,0.8,1.8,2.8,2.1,1.5,-3.0,0.0,-0.1,-0.5,-0.7,-0.6,-0.4,-1.9,-3.0,-3.0,-5.0,0.0,-2.0,-2.0,-1.0,-2.0,-2.0,-2.0,-1.0,-3.0,-3.0,-3.0,-3.0,-2.0,-3.0,-1.0,-2.0,-1.0,2.0,2.0,4.0,1.0,4.0,6.0,18.0,-3.0,-6.0,6.0,37.0,-13.0,-33.0,-32.0,-36.0,4.0,15.0,15.0,22.0,1.0,4.0,10.0,11.0,18.0,20.0,-1.0,-10.0,-31.0,-6.0,16.0,17.0,4.0,-17.0,21.0,27.0,9.0,25.0,-41.0,-41.0,16.0,-1.0,13.0,24.0,-10.0
effective tax rate,43.3,42.8,40.0,38.0,37.6,37.7,38.0,38.0,38.0,38.0,38.0,38.0,38.0,38.0,38.0,37.0,37.2,37.3,35.9,36.0,35.7,35.5,37.7,38.7,39.9,39.9,38.9,36.3,35.2,34.0,33.4,37.1,36.5,0.0,0.0,0.0,36.6,35.8,35.9,34.8,34.5,33.8,31.5,30.3,28.6,28.1,28.7,29.8,29.3,27.8,26.0,26.2,26.1,28.0,29.7,28.6,30.2,29.6,29.7,31.3,33.7,37.0,36.7,31.0,38.3,35.2,32.3,32.0,25.0,24.7,25.1,24.1,22.6,22.4,22.1,24.1,24.1
excise taxes,0.0,0.0,0.0,0.0,0.0,0.0,0.0,0.0,0.0,0.0,0.0,0.0,0.0,0.0,0.0,0.0,0.0,0.0,0.0,0.0,0.0,0.0,0.0,0.0,0.0,0.0,0.0,0.0,0.0,0.0,0.0,0.0,0.0,0.0,0.0,0.0,0.0,0.0,0.0,0.0,0.0,0.0,0.0,0.0,0.0,0.0,0.0,0.0,0.0,0.0,0.0,0.0,0.0,0.0,0.0,0.0,0.0,0.0,0.0,0.0,0.0,0.0,0.0,0.0,0.0,0.0,0.0,0.0,0.0,0.0,0.0,0.0,0.0,0.0,0.0,0.0,0.0
extraordinary gains,0.0,0.0,0.0,0.0,0.0,0.0,0.0,0.0,0.0,0.0,0.0,0.0,0.0,0.0,0.0,0.0,0.0,0.0,0.0,0.0,0.0,0.0,0.0,0.0,0.0,0.0,0.0,0.0,0.0,0.0,0.0,0.0,0.0,0.0,0.0,0.0,0.0,0.0,0.0,0.0,0.0,0.0,0.0,0.0,0.0,0.0,0.0,0.0,0.0,0.0,0.0,0.0,0.0,0.0,0.0,0.0,0.0,0.0,0.0,0.0,0.0,0.0,0.0,0.0,0.0,0.0,0.0,0.0,0.0,0.0,0.0,0.0,0.0,0.0,0.0,0.0,0.0
extraordinary income/losses,0.0,0.0,0.0,0.0,0.0,0.0,0.0,0.0,0.0,0.0,0.0,0.0,0.0,0.0,0.0,0.0,0.0,0.0,0.0,0.0,0.0,0.0,0.0,0.0,0.0,0.0,0.0,0.0,0.0,0.0,0.0,0.0,0.0,0.0,0.0,0.0,0.0,0.0,0.0,0.0,0.0,0.0,0.0,0.0,0.0,0.0,0.0,0.0,0.0,0.0,0.0,0.0,0.0,0.0,0.0,0.0,0.0,0.0,0.0,0.0,0.0,0.0,0.0,0.0,0.0,0.0,0.0,0.0,0.0,0.0,0.0,0.0,0.0,0.0,0.0,0.0,0.0
foreign sales,0.0,0.0,0.0,0.0,0.0,0.0,0.0,0.0,0.0,0.0,0.0,0.0,0.0,0.0,0.0,0.0,0.0,0.0,0.0,0.0,0.0,0.0,0.0,0.0,0.0,0.0,0.0,0.0,0.0,0.0,0.0,0.0,0.0,0.0,0.0,0.0,0.0,0.0,0.0,0.0,0.0,0.0,0.0,0.0,0.0,0.0,0.0,0.0,0.0,0.0,0.0,0.0,0.0,0.0,0.0,0.0,0.0,0.0,0.0,0.0,0.0,0.0,0.0,0.0,0.0,0.0,0.0,0.0,0.0,0.0,0.0,0.0,0.0,0.0,0.0,0.0,0.0
free cash flow,-60.0,-12.7,102.6,97.6,46.6,179.9,267.3,378.7,-34.7,-29.7,193.2,282.8,-0.1,121.0,210.0,-61.0,-21.0,53.0,-3.0,-187.0,-150.0,-62.0,"-1,106.0","-1,195.0",-204.0,-117.0,-43.0,-82.0,-86.0,116.0,323.0,476.0,-79.0,119.0,229.0,325.0,-21.0,161.0,405.0,609.0,-60.0,23.0,258.0,400.0,-7.0,-44.0,251.0,370.0,-139.0,-113.0,-195.0,40.0,-422.0,-292.0,-160.0,77.0,"-1,668.0","-1,542.0","-1,086.0",-816.0,-440.0,-202.0,293.0,650.0,-205.0,48.0,221.0,522.0,-309.0,-144.0,182.0,529.0,-216.0,7.0,419.0,785.0,684.0
free cash flow per share,-0.28,-0.06,0.48,0.47,0.23,0.89,1.36,1.95,-0.18,-0.16,1.05,1.54,0.00,0.67,1.18,-0.34,-0.12,0.30,-0.02,-1.07,-0.86,-0.36,-6.36,-6.86,-1.17,-0.67,-0.25,-0.49,-0.51,0.69,1.92,2.82,-0.47,0.70,1.35,1.92,-0.12,0.95,2.38,3.56,-0.35,0.13,1.50,2.33,-0.04,-0.26,1.50,2.24,-0.84,-0.68,-1.18,0.24,-2.57,-1.78,-0.98,0.47,-10.16,-9.40,-6.61,-4.97,-2.67,-1.22,1.75,3.92,-1.23,0.29,1.36,3.25,-1.95,-0.91,1.18,3.48,-1.42,0.05,2.73,5.11,4.80
gross fixed assets,"6,084.6","6,076.4","6,128.4","6,162.7","6,010.5","6,348.1","6,392.6","6,464.0","6,533.1","6,603.3","6,679.9","6,688.2","6,644.2","6,667.0","6,716.0","6,758.0","6,816.0","6,902.0","6,548.0","6,739.0","6,734.0","6,792.0","6,757.0","6,859.0","6,901.0","6,962.0","6,978.0","7,089.0","7,072.0","7,060.0","7,143.0","7,153.0","7,161.0","7,284.0","7,232.0","7,270.0","7,352.0","7,482.0","7,479.0","7,620.0","7,620.0","7,602.0","7,668.0","7,855.0","7,812.0","7,749.0","7,809.0","7,802.0","7,865.0","8,058.0","8,173.0","8,344.0","8,445.0","8,580.0","7,755.0","7,833.0","8,816.0","9,736.0","8,099.0","8,043.0","7,900.0","8,156.0","8,279.0","8,313.0","8,209.0","8,014.0","8,314.0","8,415.0","8,562.0","8,706.0","8,537.0","8,614.0","8,808.0","8,725.0","8,851.0","9,030.0","7,042.0"
gross margin,565.1,631.4,613.2,656.0,712.7,761.1,694.7,677.1,681.6,785.7,729.1,681.4,689.8,798.0,733.0,761.0,768.0,818.0,722.0,726.0,700.0,782.0,748.0,808.0,721.0,771.0,695.0,"1,108.0",663.0,710.0,627.0,"1,032.0",587.0,708.0,678.0,"1,028.0",631.0,759.0,736.0,"1,108.0",726.0,809.0,797.0,"1,176.0",840.0,913.0,841.0,"1,134.0",856.0,983.0,913.0,"1,249.0",931.0,"1,051.0",964.0,"1,312.0","1,155.0","1,480.0","1,385.0","1,604.0",947.0,"1,098.0","1,116.0","1,539.0","1,061.0","1,267.0","1,236.0","1,645.0","1,406.0","1,569.0","1,496.0","1,333.0","1,523.0","1,603.0","1,557.0","1,448.0","1,384.0"
gross profit margin,36.2,35.5,34.8,39.2,39.9,40.2,40.5,40.6,40.1,40.2,40.2,40.2,40.1,40.1,40.0,40.8,41.0,40.9,40.8,40.8,40.4,40.3,39.8,39.2,39.2,38.9,38.8,38.2,37.5,37.0,36.5,37.1,37.2,37.3,37.6,37.2,36.9,36.7,36.8,36.9,37.2,37.2,37.1,36.9,37.2,37.4,37.3,36.5,36.2,36.3,36.1,36.3,36.0,35.5,35.9,36.8,35.6,35.4,34.9,35.9,36.9,37.8,38.7,38.4,38.3,38.6,38.8,38.8,40.2,40.8,41.5,39.0,39.2,39.5,39.9,40.3,40.5
income before income taxes,0.0,0.0,0.0,0.0,0.0,0.0,0.0,0.0,0.0,0.0,0.0,0.0,0.0,0.0,0.0,0.0,0.0,0.0,0.0,0.0,0.0,0.0,0.0,0.0,0.0,0.0,0.0,0.0,0.0,0.0,0.0,0.0,0.0,0.0,248.0,158.0,151.0,0.0,239.0,-153.0,198.0,298.0,294.0,265.0,145.0,360.0,255.0,187.0,269.0,405.0,133.0,253.0,280.0,396.0,335.0,292.0,162.0,394.0,203.0,128.0,-111.0,253.0,275.0,200.0,206.0,412.0,386.0,291.0,351.0,500.0,462.0,284.0,51.0,527.0,486.0,338.0,318.0
income from cum. effect of acct. change,0.0,0.0,0.0,0.0,0.0,0.0,0.0,0.0,0.0,0.0,0.0,0.0,0.0,0.0,0.0,0.0,0.0,0.0,0.0,0.0,0.0,0.0,0.0,0.0,0.0,0.0,0.0,0.0,0.0,0.0,0.0,0.0,-9.0,0.0,0.0,0.0,-6.0,0.0,0.0,0.0,0.0,0.0,0.0,0.0,0.0,0.0,0.0,0.0,0.0,0.0,0.0,0.0,0.0,0.0,0.0,0.0,0.0,0.0,0.0,0.0,0.0,0.0,0.0,0.0,0.0,0.0,0.0,0.0,0.0,0.0,0.0,0.0,0.0,0.0,0.0,0.0,0.0
income from tax loss carryforward,0.0,0.0,0.0,0.0,0.0,0.0,0.0,0.0,0.0,0.0,0.0,0.0,0.0,0.0,0.0,0.0,0.0,0.0,0.0,0.0,0.0,0.0,0.0,0.0,0.0,0.0,0.0,0.0,0.0,0.0,0.0,0.0,0.0,0.0,0.0,0.0,0.0,0.0,0.0,0.0,0.0,0.0,0.0,0.0,0.0,0.0,0.0,0.0,0.0,0.0,0.0,0.0,0.0,0.0,0.0,0.0,0.0,0.0,0.0,0.0,0.0,0.0,0.0,0.0,0.0,0.0,0.0,0.0,0.0,0.0,0.0,0.0,0.0,0.0,0.0,0.0,0.0
income per employee,None,None,None,16708,None,None,None,24603,None,None,None,23770,None,None,None,22382,None,None,None,24646,None,None,None,16805,None,None,None,17416,None,None,None,11089,None,None,None,-1760,None,None,None,15198,None,None,None,21478,None,None,None,19351,None,None,None,22081,None,None,None,23897,None,None,None,11982,None,None,None,10677,None,None,None,20078,None,None,None,28516,None,None,None,27143,None
income taxes,83.8,60.9,86.2,94.3,136.4,135.6,106.4,101.3,109.3,144.3,120.5,96.9,105.9,138.0,108.0,83.0,126.0,130.0,124.0,86.0,79.0,116.0,77.0,105.0,109.0,132.0,92.0,36.0,48.0,94.0,55.0,50.0,33.0,-186.0,89.0,57.0,55.0,93.0,86.0,59.0,69.0,99.0,82.0,72.0,34.0,111.0,77.0,60.0,66.0,107.0,25.0,80.0,68.0,124.0,103.0,82.0,49.0,116.0,65.0,46.0,-20.0,84.0,90.0,37.0,147.0,111.0,94.0,63.0,92.0,128.0,120.0,45.0,0.0,131.0,122.0,85.0,64.0
"income, acquired in process r&a;",0.0,0.0,0.0,0.0,0.0,0.0,0.0,0.0,0.0,0.0,0.0,0.0,0.0,0.0,0.0,0.0,0.0,0.0,0.0,0.0,0.0,0.0,-40.0,0.0,0.0,0.0,0.0,0.0,0.0,0.0,0.0,0.0,0.0,0.0,0.0,0.0,0.0,0.0,0.0,0.0,0.0,0.0,0.0,0.0,0.0,0.0,0.0,0.0,0.0,0.0,0.0,0.0,0.0,0.0,0.0,0.0,-23.0,0.0,0.0,46.0,0.0,0.0,0.0,0.0,0.0,0.0,0.0,0.0,0.0,0.0,0.0,0.0,0.0,0.0,0.0,0.0,0.0
intangibles,0.0,0.0,0.0,0.0,0.0,0.0,0.0,0.0,0.0,0.0,0.0,0.0,0.0,0.0,0.0,0.0,0.0,0.0,0.0,576.0,586.0,571.0,"1,573.0","1,662.0","1,722.0","1,696.0","1,638.0","1,648.0","1,595.0","1,570.0","1,574.0","1,542.0","1,506.0","1,549.0","1,532.0","1,561.0","1,574.0","1,610.0","1,607.0","1,652.0","1,674.0","1,651.0","1,660.0","1,713.0","1,680.0","1,654.0","1,650.0","1,654.0",488.0,553.0,628.0,586.0,645.0,637.0,629.0,612.0,"1,749.0","1,725.0","1,561.0","1,472.0","1,388.0","1,446.0","1,456.0","1,416.0","1,343.0","1,238.0","1,297.0","1,268.0","1,283.0","1,280.0","1,174.0","1,125.0","1,132.0","1,067.0","1,066.0","1,085.0","1,033.0"
intangibles as % of book-value,0.0,0.0,0.0,0.0,0.0,0.0,0.0,0.0,0.0,0.0,0.0,0.0,0.0,0.0,0.0,0.0,0.0,0.0,0.0,20.0,21.0,19.5,52.4,53.5,54.9,52.6,52.2,53.2,52.9,51.3,50.7,50.1,49.6,56.8,55.2,72.6,70.4,66.3,63.7,56.8,56.3,54.0,51.0,48.0,47.3,48.5,49.7,54.2,51.8,51.7,55.9,61.3,60.9,57.1,52.2,50.3,104.5,99.5,101.6,123.4,138.9,130.5,120.2,111.9,112.2,109.1,103.8,109.6,108.8,102.4,105.7,116.5,117.2,107.2,97.7,94.7,77.9
interest as % of invested capital,2.9,2.8,2.6,2.6,2.5,2.4,2.4,2.6,2.7,2.7,2.8,2.9,2.8,2.9,2.9,2.8,2.9,2.9,2.8,2.8,2.7,2.7,2.4,2.7,3.0,3.3,3.5,3.6,3.9,3.9,3.8,3.5,3.3,3.2,2.9,3.3,3.1,2.9,2.8,2.5,2.4,2.3,2.2,1.9,1.9,1.8,1.8,1.9,1.8,1.7,1.8,1.9,1.9,1.8,1.7,1.7,1.7,2.2,2.9,4.0,4.1,3.4,3.1,2.8,2.9,2.9,2.7,2.5,2.5,2.7,2.9,3.1,3.3,3.2,2.9,2.8,2.6
interest coverage (cont. operations),6.7,6.6,8.7,10.8,12.7,15.3,15.9,15.7,14.6,14.3,14.0,13.7,13.2,12.9,12.7,11.9,11.9,11.4,12.1,12.5,11.9,11.5,9.1,8.1,7.6,7.2,7.3,6.6,5.6,5.1,4.6,4.8,4.9,0.0,0.4,0.5,1.0,7.5,7.9,8.4,9.2,9.8,10.6,12.2,11.7,13.1,12.7,11.8,13.5,13.9,12.3,12.9,12.8,12.3,14.7,13.6,9.0,7.1,5.4,4.2,3.3,2.8,3.3,4.2,5.9,6.8,7.4,7.3,7.7,7.9,8.0,8.0,6.6,6.9,7.0,7.7,9.1
interest expense,21.8,22.4,21.8,20.1,20.5,20.7,21.2,22.2,22.0,24.6,25.8,23.2,25.0,26.0,25.0,29.0,30.0,28.0,27.0,25.0,26.0,29.0,35.0,43.0,43.0,44.0,43.0,47.0,48.0,46.0,43.0,32.0,33.0,33.0,33.0,29.0,28.0,28.0,25.0,26.0,23.0,25.0,22.0,20.0,21.0,20.0,21.0,19.0,20.0,21.0,22.0,20.0,22.0,23.0,22.0,26.0,66.0,65.0,62.0,61.0,48.0,49.0,47.0,49.0,45.0,46.0,46.0,52.0,53.0,55.0,51.0,51.0,51.0,50.0,54.0,55.0,53.0
interest income,0.0,0.0,0.0,9.3,0.0,0.0,0.0,10.6,0.0,0.0,0.0,10.6,0.0,0.0,0.0,8.0,0.0,0.0,0.0,12.0,0.0,0.0,0.0,8.0,0.0,0.0,0.0,12.0,0.0,0.0,0.0,15.0,0.0,0.0,0.0,9.0,0.0,0.0,0.0,0.0,0.0,0.0,0.0,12.0,0.0,0.0,0.0,0.0,0.0,0.0,0.0,14.0,0.0,0.0,0.0,20.0,0.0,0.0,0.0,26.0,0.0,0.0,0.0,28.0,0.0,0.0,0.0,34.0,0.0,0.0,11.0,10.0,10.0,9.0,10.0,10.0,10.0
inventories,718.2,694.5,686.8,686.4,767.3,760.4,759.9,737.5,779.8,746.6,779.1,796.5,819.6,807.0,819.0,863.0,898.0,902.0,870.0,917.0,948.0,915.0,"1,020.0","1,016.0","1,067.0","1,067.0","1,070.0","1,121.0","1,141.0","1,076.0","1,006.0",904.0,948.0,962.0,957.0,942.0,"1,004.0","1,004.0",990.0,997.0,"1,044.0","1,025.0","1,010.0","1,076.0","1,130.0","1,105.0","1,116.0","1,119.0","1,195.0","1,273.0","1,377.0","1,390.0","1,459.0","1,480.0","1,385.0","1,368.0","1,977.0","2,124.0","1,818.0","1,702.0","1,677.0","1,672.0","1,656.0","1,548.0","1,599.0","1,541.0","1,638.0","1,573.0","1,755.0","1,821.0","1,737.0","1,607.0","1,830.0","1,775.0","1,777.0","1,687.0","1,698.0"
"inventories, finished goods",483.6,460.6,455.6,462.7,522.9,513.7,507.8,504.5,530.6,498.3,524.4,547.3,563.8,553.0,559.0,608.0,625.0,622.0,605.0,638.0,656.0,636.0,719.0,716.0,743.0,742.0,755.0,807.0,819.0,766.0,706.0,622.0,657.0,675.0,670.0,548.0,601.0,591.0,582.0,601.0,630.0,612.0,594.0,635.0,675.0,652.0,656.0,667.0,722.0,760.0,842.0,850.0,887.0,888.0,811.0,824.0,"1,222.0","1,313.0","1,101.0","1,045.0","1,039.0","1,022.0",991.0,918.0,937.0,880.0,938.0,912.0,"1,028.0","1,053.0","1,007.0",935.0,"1,092.0","1,047.0","1,023.0",980.0,"1,033.0"
"inventories, other",113.4,114.3,114.2,111.8,113.2,114.2,113.2,112.5,114.5,117.6,117.2,115.3,120.0,115.0,114.0,114.0,114.0,114.0,105.0,105.0,105.0,104.0,114.0,111.0,113.0,113.0,113.0,116.0,115.0,119.0,119.0,116.0,118.0,121.0,119.0,124.0,124.0,125.0,126.0,128.0,128.0,128.0,129.0,131.0,128.0,128.0,127.0,128.0,128.0,133.0,135.0,138.0,140.0,141.0,115.0,111.0,117.0,148.0,113.0,0.0,0.0,0.0,0.0,0.0,0.0,0.0,0.0,114.0,0.0,0.0,0.0,0.0,0.0,0.0,0.0,0.0,0.0
"inventories, purchased components",0.0,0.0,0.0,0.0,0.0,0.0,0.0,0.0,0.0,0.0,0.0,0.0,0.0,0.0,0.0,0.0,0.0,0.0,0.0,0.0,0.0,0.0,0.0,0.0,0.0,0.0,0.0,0.0,0.0,0.0,0.0,0.0,0.0,0.0,0.0,0.0,0.0,0.0,0.0,0.0,0.0,0.0,0.0,0.0,0.0,0.0,0.0,0.0,0.0,0.0,0.0,0.0,0.0,0.0,0.0,0.0,0.0,0.0,0.0,0.0,0.0,0.0,0.0,0.0,0.0,0.0,0.0,0.0,0.0,0.0,0.0,0.0,0.0,0.0,0.0,0.0,0.0
"inventories, raw materials",121.2,119.6,117.0,111.9,131.2,132.5,138.9,120.5,134.7,130.7,137.5,133.9,135.8,139.0,146.0,141.0,159.0,166.0,160.0,174.0,187.0,175.0,187.0,189.0,211.0,212.0,202.0,198.0,207.0,191.0,181.0,166.0,173.0,166.0,168.0,157.0,159.0,164.0,164.0,157.0,163.0,160.0,171.0,192.0,203.0,205.0,213.0,213.0,223.0,249.0,264.0,273.0,293.0,309.0,315.0,312.0,479.0,493.0,452.0,523.0,501.0,511.0,526.0,505.0,524.0,524.0,558.0,411.0,573.0,604.0,573.0,528.0,575.0,571.0,595.0,563.0,512.0
"inventories, work in progress",0.0,0.0,0.0,0.0,0.0,0.0,0.0,0.0,0.0,0.0,0.0,0.0,0.0,0.0,0.0,0.0,0.0,0.0,0.0,0.0,0.0,0.0,0.0,0.0,0.0,0.0,0.0,0.0,0.0,0.0,0.0,0.0,0.0,0.0,0.0,113.0,120.0,124.0,118.0,111.0,123.0,125.0,116.0,118.0,124.0,120.0,120.0,111.0,122.0,131.0,136.0,129.0,139.0,142.0,144.0,121.0,159.0,170.0,152.0,134.0,137.0,139.0,139.0,125.0,138.0,137.0,142.0,136.0,154.0,164.0,157.0,144.0,163.0,157.0,159.0,144.0,153.0
inventory as % of revenue,12.4,11.8,11.4,10.8,11.6,11.1,10.9,10.4,11.0,10.5,10.8,11.0,11.3,11.1,11.2,11.7,11.9,11.9,11.5,12.2,12.8,12.5,13.6,13.1,13.3,12.8,12.7,13.0,13.2,12.5,11.8,11.1,11.9,12.2,12.0,11.7,12.2,11.9,11.6,11.4,11.7,11.3,10.9,11.3,11.6,11.1,11.0,11.0,11.6,12.1,12.8,12.6,12.9,12.7,11.9,12.2,15.7,15.3,11.9,10.7,11.4,12.6,13.5,12.6,12.7,11.9,12.4,11.7,12.7,12.7,11.8,10.8,12.1,11.8,11.8,11.1,11.5
inventory turnover,5.0,5.3,5.5,5.6,5.3,5.6,5.8,5.9,5.5,5.6,5.6,5.6,5.4,5.6,5.5,5.3,5.2,5.2,5.3,5.0,4.8,4.8,4.8,4.9,4.9,5.1,4.9,5.0,4.9,5.1,5.2,5.1,4.8,4.9,5.1,5.5,5.3,5.4,5.6,5.7,5.5,5.6,5.8,5.8,5.6,5.9,6.0,5.9,5.7,5.6,5.5,5.6,5.5,5.5,5.4,5.1,4.7,5.0,6.2,6.6,5.1,4.4,4.3,4.6,4.7,4.9,4.9,5.3,4.9,5.1,5.1,5.7,5.1,5.1,5.2,5.5,5.0
invested capital,"3,287.3","3,342.4","3,457.6","3,330.4","3,402.1","3,468.5","3,385.5","3,304.7","3,212.2","3,329.6","3,405.6","3,316.5","3,461.1","3,444.0","3,473.0","3,766.0","3,837.0","3,926.0","4,124.0","3,961.0","3,863.0","3,986.0","4,850.0","4,942.0","4,962.0","5,050.0","4,959.0","4,907.0","4,715.0","4,765.0","4,823.0","4,779.0","4,716.0","4,415.0","4,480.0","3,849.0","3,935.0","4,114.0","3,878.0","4,250.0","4,301.0","4,355.0","4,455.0","4,756.0","4,686.0","4,601.0","4,499.0","4,222.0","4,388.0","4,673.0","4,678.0","4,389.0","4,594.0","4,836.0","5,184.0","5,352.0","8,013.0","8,064.0","7,425.0","6,342.0","5,816.0","6,481.0","6,620.0","6,827.0","6,643.0","6,467.0","6,940.0","7,681.0","7,759.0","7,667.0","7,252.0","6,823.0","6,281.0","6,425.0","7,226.0","7,431.0","8,140.0"
issuance of capital stock,0.0,0.0,0.0,19.4,0.0,0.0,0.0,7.4,0.0,0.0,0.0,26.8,0.0,0.0,0.0,14.0,0.0,0.0,0.0,22.0,0.0,0.0,0.0,9.0,2.0,3.0,0.0,4.0,0.0,8.0,7.0,13.0,5.0,20.0,31.0,32.0,3.0,4.0,29.0,86.0,20.0,37.0,52.0,121.0,123.0,136.0,138.0,148.0,8.0,29.0,36.0,67.0,59.0,139.0,187.0,194.0,7.0,8.0,13.0,13.0,0.0,0.0,0.0,12.0,20.0,42.0,0.0,146.0,37.0,61.0,70.0,81.0,50.0,71.0,110.0,122.0,32.0
issuance of debt,133.9,41.5,56.1,88.8,27.8,44.8,177.0,208.5,308.6,560.5,396.3,498.6,240.7,278.0,307.0,599.0,135.0,161.0,140.0,330.0,258.0,278.0,"1,333.0","1,604.0",267.0,268.0,395.0,564.0,118.0,123.0,197.0,246.0,157.0,53.0,60.0,68.0,13.0,27.0,14.0,13.0,15.0,18.0,28.0,45.0,27.0,393.0,422.0,450.0,46.0,83.0,135.0,143.0,214.0,180.0,147.0,"1,852.0","2,939.0","2,975.0","3,028.0","3,050.0",26.0,421.0,415.0,401.0,2.0,0.0,0.0,998.0,2.0,3.0,23.0,26.0,0.0,0.0,397.0,426.0,1.0
land and improvements,0.0,0.0,0.0,280.7,0.0,0.0,0.0,288.4,0.0,0.0,0.0,295.9,0.0,0.0,0.0,304.0,0.0,0.0,0.0,317.0,0.0,0.0,0.0,308.0,0.0,0.0,0.0,303.0,0.0,0.0,0.0,301.0,0.0,0.0,0.0,309.0,0.0,0.0,0.0,332.0,0.0,0.0,0.0,346.0,0.0,0.0,0.0,0.0,0.0,0.0,0.0,385.0,0.0,0.0,0.0,401.0,0.0,0.0,0.0,453.0,0.0,0.0,0.0,478.0,0.0,0.0,0.0,477.0,0.0,0.0,0.0,482.0,0.0,0.0,0.0,504.0,0.0
leverage ratio,2.3,2.3,2.2,2.3,2.2,2.2,2.3,2.4,2.5,2.6,2.5,2.6,2.7,2.7,2.6,2.7,2.7,2.7,2.4,2.6,2.7,2.6,2.9,2.9,2.9,2.8,2.9,2.9,3.0,2.9,2.8,2.7,2.8,3.2,3.1,3.7,3.6,3.4,3.3,2.9,2.9,2.8,2.6,2.5,2.5,2.6,2.7,2.8,2.8,2.7,2.8,3.1,3.0,2.9,2.7,3.0,3.6,3.5,3.6,4.4,4.8,4.6,4.1,3.8,3.8,3.9,3.6,4.1,4.0,3.8,4.0,4.4,4.5,4.3,4.0,3.9,3.2
loans receivable,0.0,0.0,0.0,0.0,0.0,0.0,0.0,0.0,0.0,0.0,0.0,0.0,0.0,0.0,0.0,0.0,0.0,0.0,0.0,0.0,0.0,0.0,0.0,0.0,0.0,0.0,0.0,0.0,0.0,0.0,0.0,0.0,0.0,0.0,0.0,0.0,0.0,0.0,0.0,0.0,0.0,0.0,0.0,0.0,0.0,0.0,0.0,0.0,0.0,0.0,0.0,0.0,0.0,0.0,0.0,0.0,0.0,0.0,0.0,0.0,0.0,0.0,0.0,0.0,0.0,0.0,0.0,0.0,0.0,0.0,0.0,0.0,0.0,0.0,0.0,0.0,0.0
long-term debt,771.9,769.1,767.7,745.0,655.5,652.8,744.5,706.8,712.4,848.6,843.1,806.1,"1,008.3",980.0,990.0,"1,216.0","1,230.0","1,223.0","1,203.0","1,047.0","1,066.0","1,051.0","1,849.0","1,826.0","1,825.0","1,824.0","1,820.0","1,800.0","1,701.0","1,703.0","1,720.0","1,689.0","1,679.0","1,690.0","1,707.0","1,689.0","1,699.0","1,684.0","1,356.0","1,339.0","1,329.0","1,295.0","1,200.0","1,184.0","1,137.0","1,188.0","1,181.0","1,169.0","1,174.0","1,196.0","1,195.0","1,155.0","1,158.0","1,151.0","1,181.0","1,201.0","3,639.0","3,440.0","3,221.0","3,009.0","2,986.0","3,306.0","3,082.0","3,074.0","3,051.0","3,017.0","3,066.0","4,043.0","3,993.0","3,613.0","3,590.0","3,574.0","2,988.0","2,964.0","3,365.0","3,368.0","3,353.0"
long-term debt per share,3.63,3.62,3.61,3.73,3.18,3.22,3.80,3.78,3.77,4.55,4.60,4.55,5.59,5.47,5.56,7.06,6.93,6.91,6.79,6.17,6.14,6.05,10.64,10.55,10.48,10.49,10.78,10.76,10.10,10.12,10.22,10.07,9.95,9.98,10.07,10.03,10.01,9.92,7.98,7.83,7.75,7.55,6.99,6.88,6.62,6.99,7.07,7.07,7.09,7.24,7.23,7.04,7.05,7.02,7.21,7.33,22.18,20.96,19.62,18.32,18.15,20.05,18.46,18.56,18.34,18.27,18.81,25.21,25.25,22.94,23.25,23.53,19.62,19.41,21.94,21.93,23.51
marketable securities,0.0,0.0,0.0,0.0,0.0,0.0,0.0,0.0,0.0,0.0,0.0,0.0,0.0,0.0,0.0,0.0,0.0,0.0,0.0,0.0,0.0,0.0,0.0,0.0,0.0,0.0,0.0,0.0,0.0,0.0,0.0,0.0,0.0,0.0,0.0,0.0,0.0,0.0,0.0,0.0,0.0,0.0,0.0,0.0,37.0,0.0,0.0,0.0,0.0,0.0,0.0,0.0,0.0,0.0,0.0,"1,706.0",0.0,0.0,0.0,0.0,0.0,0.0,0.0,0.0,0.0,0.0,0.0,637.0,587.0,263.0,37.0,25.0,56.0,230.0,619.0,"1,087.0",359.0
minority interest,3.9,4.1,5.0,2.9,3.3,4.5,3.3,3.9,6.1,6.8,5.7,6.0,6.7,6.0,5.0,8.0,10.0,7.0,5.0,5.0,6.0,4.0,8.0,10.0,8.0,6.0,7.0,7.0,10.0,12.0,5.0,5.0,8.0,13.0,11.0,7.0,12.0,18.0,11.0,9.0,14.0,16.0,18.0,10.0,16.0,18.0,21.0,14.0,19.0,18.0,18.0,16.0,18.0,23.0,17.0,17.0,26.0,28.0,21.0,11.0,20.0,23.0,26.0,21.0,29.0,29.0,30.0,23.0,31.0,32.0,31.0,23.0,38.0,34.0,25.0,26.0,35.0
minority interest liability,56.1,59.6,65.1,70.3,74.3,76.8,72.2,68.2,73.5,74.6,74.6,76.2,77.3,80.0,82.0,82.0,87.0,86.0,86.0,87.0,97.0,91.0,101.0,98.0,102.0,105.0,134.0,128.0,131.0,135.0,127.0,122.0,128.0,134.0,134.0,131.0,145.0,155.0,136.0,137.0,116.0,116.0,114.0,96.0,115.0,121.0,130.0,108.0,127.0,129.0,130.0,148.0,165.0,184.0,140.0,133.0,179.0,194.0,166.0,0.0,173.0,193.0,196.0,169.0,197.0,189.0,228.0,195.0,229.0,234.0,244.0,197.0,223.0,214.0,271.0,259.0,254.0
net cash from continuing operations,83.5,241.0,503.0,691.1,181.4,462.2,731.6,"1,072.0",139.7,310.7,700.6,"1,007.9",163.3,438.0,724.0,"1,007.0",219.0,462.0,715.0,942.0,125.0,389.0,718.0,902.0,90.0,363.0,612.0,870.0,50.0,391.0,766.0,"1,060.0",48.0,361.0,592.0,872.0,113.0,412.0,770.0,"1,123.0",130.0,351.0,712.0,"1,018.0",140.0,270.0,716.0,"1,065.0",35.0,333.0,675.0,"1,130.0",-98.0,229.0,501.0,943.0,46.0,359.0,810.0,"1,358.0",-291.0,106.0,760.0,"1,345.0",-54.0,367.0,698.0,"1,310.0",-156.0,252.0,777.0,"1,436.0",-2.0,434.0,"1,039.0","1,787.0",-93.0
net cash from discontinued operations,0.0,0.0,0.0,0.0,0.0,0.0,0.0,0.0,0.0,0.0,0.0,0.0,0.0,0.0,0.0,0.0,0.0,0.0,0.0,0.0,0.0,0.0,0.0,0.0,0.0,0.0,0.0,0.0,0.0,0.0,0.0,0.0,0.0,0.0,0.0,0.0,0.0,0.0,0.0,0.0,0.0,0.0,0.0,0.0,0.0,0.0,0.0,0.0,0.0,0.0,0.0,0.0,0.0,0.0,46.0,53.0,3.0,0.0,0.0,0.0,0.0,0.0,0.0,0.0,0.0,0.0,0.0,0.0,0.0,0.0,0.0,0.0,0.0,0.0,0.0,0.0,4.0
net fixed assets,"2,762.7","2,735.7","2,718.9","2,742.3","2,758.9","2,757.8","2,763.6","2,834.8","2,850.0","2,863.5","2,891.6","2,913.5","2,871.4","2,861.0","2,846.0","2,855.0","2,878.0","2,889.0","2,806.0","2,905.0","2,874.0","2,876.0","2,861.0","2,933.0","2,918.0","2,920.0","2,900.0","2,941.0","2,849.0","2,801.0","2,791.0","2,752.0","2,695.0","2,674.0","2,606.0","2,632.0","2,611.0","2,610.0","2,543.0","2,566.0","2,512.0","2,453.0","2,420.0","2,471.0","2,412.0","2,356.0","2,336.0","2,304.0","2,283.0","2,364.0","2,412.0","2,496.0","2,512.0","2,535.0","2,391.0","2,426.0","3,253.0","3,363.0","2,833.0","2,798.0","2,658.0","2,745.0","2,765.0","2,754.0","2,660.0","2,533.0","2,620.0","2,686.0","2,696.0","2,759.0","2,669.0","2,721.0","2,785.0","2,719.0","2,759.0","2,888.0","2,461.0"
net income (continuing operations),121.9,96.2,145.5,151.0,219.2,216.8,170.4,161.2,172.3,228.5,191.1,152.1,166.0,218.0,171.0,159.0,192.0,199.0,248.0,162.0,123.0,184.0,99.0,162.0,139.0,205.0,150.0,126.0,56.0,155.0,93.0,83.0,43.0,-345.0,148.0,94.0,84.0,152.0,142.0,122.0,115.0,183.0,194.0,183.0,95.0,231.0,157.0,113.0,184.0,280.0,90.0,157.0,194.0,249.0,215.0,193.0,87.0,250.0,117.0,71.0,-111.0,146.0,159.0,232.0,30.0,272.0,262.0,205.0,228.0,340.0,311.0,216.0,13.0,362.0,339.0,350.0,254.0
net income (discontinued operations),0.0,0.0,0.0,0.0,0.0,0.0,0.0,0.0,0.0,0.0,0.0,0.0,0.0,0.0,0.0,0.0,0.0,0.0,0.0,0.0,0.0,0.0,0.0,0.0,0.0,0.0,0.0,0.0,0.0,0.0,0.0,0.0,0.0,0.0,0.0,0.0,0.0,0.0,0.0,0.0,0.0,0.0,0.0,0.0,0.0,0.0,0.0,0.0,0.0,0.0,0.0,0.0,0.0,0.0,-24.0,7.0,13.0,0.0,0.0,0.0,0.0,0.0,0.0,0.0,0.0,0.0,0.0,0.0,0.0,0.0,0.0,0.0,0.0,0.0,0.0,0.0,"2,191.0"
net income available for common,121.9,96.2,145.5,151.0,219.2,216.8,170.4,161.2,172.3,228.5,191.1,152.1,166.0,218.0,171.0,159.0,192.0,199.0,248.0,162.0,123.0,184.0,99.0,162.0,139.0,205.0,150.0,126.0,56.0,155.0,93.0,83.0,43.0,-345.0,148.0,94.0,84.0,152.0,142.0,122.0,115.0,183.0,194.0,183.0,95.0,231.0,157.0,113.0,184.0,280.0,90.0,157.0,194.0,249.0,215.0,193.0,87.0,250.0,117.0,71.0,-111.0,146.0,159.0,232.0,30.0,272.0,262.0,205.0,228.0,340.0,311.0,216.0,13.0,362.0,339.0,350.0,254.0
net income/loss,121.9,218.1,363.6,514.6,219.2,436.0,606.4,767.6,172.3,400.8,591.9,744.0,166.0,384.0,555.0,714.0,192.0,391.0,639.0,801.0,123.0,307.0,406.0,568.0,139.0,344.0,494.0,620.0,56.0,211.0,304.0,387.0,34.0,-311.0,-163.0,-69.0,78.0,230.0,372.0,494.0,115.0,298.0,500.0,683.0,95.0,270.0,483.0,596.0,184.0,464.0,554.0,711.0,194.0,443.0,634.0,834.0,100.0,350.0,467.0,538.0,0.0,0.0,0.0,426.0,0.0,0.0,0.0,880.0,259.0,631.0,973.0,"1,212.0",51.0,447.0,811.0,"1,064.0","2,445.0"
net profit margin,5.3,5.0,6.9,8.1,9.3,10.7,10.8,10.9,10.2,10.3,10.5,10.3,10.2,10.0,9.7,9.7,9.8,9.5,10.5,10.7,9.9,9.8,7.6,7.3,7.3,7.3,7.8,7.2,6.2,5.7,5.0,4.7,4.7,-1.6,-0.9,-0.7,-0.2,5.7,5.5,5.7,5.9,6.2,6.6,7.2,6.7,7.1,6.6,5.8,6.6,7.0,6.2,6.4,6.4,5.9,6.8,7.4,5.9,5.3,4.4,3.4,2.2,1.7,2.2,3.5,4.5,5.4,6.0,5.7,7.0,7.2,7.4,7.4,5.8,6.0,6.2,7.0,23.7
non-current deferred income taxes,0.0,0.0,0.0,0.0,0.0,0.0,0.0,0.0,0.0,0.0,0.0,0.0,0.0,0.0,0.0,0.0,0.0,0.0,0.0,0.0,0.0,0.0,0.0,0.0,0.0,0.0,0.0,0.0,0.0,0.0,0.0,0.0,0.0,0.0,0.0,0.0,0.0,0.0,0.0,0.0,0.0,0.0,0.0,0.0,0.0,0.0,0.0,0.0,0.0,0.0,0.0,0.0,0.0,0.0,0.0,0.0,0.0,0.0,0.0,0.0,0.0,0.0,0.0,0.0,0.0,0.0,0.0,0.0,0.0,0.0,0.0,0.0,0.0,0.0,0.0,0.0,0.0
normalized income,121.9,181.2,145.5,151.0,219.2,216.8,170.4,161.2,172.3,228.5,191.1,152.1,166.0,218.0,171.0,261.0,192.0,214.0,248.0,178.0,147.0,184.0,158.0,161.0,140.0,204.0,156.0,125.0,157.0,155.0,95.0,83.0,124.0,423.0,124.0,101.0,89.0,166.0,150.0,136.0,120.0,193.0,200.0,194.0,104.0,234.0,161.0,119.0,228.0,290.0,96.0,162.0,203.0,257.0,220.0,254.0,110.0,254.0,285.0,62.0,75.0,146.0,159.0,232.0,30.0,272.0,262.0,205.0,228.0,340.0,311.0,216.0,221.0,362.0,339.0,641.0,254.0
normalized income per employee,None,None,None,19468,None,None,None,24603,None,None,None,23770,None,None,None,25580,None,None,None,25600,None,None,None,19231,None,None,None,17556,None,None,None,14040,None,None,None,22639,None,None,None,16474,None,None,None,22484,None,None,None,20065,None,None,None,24099,None,None,None,25731,None,None,None,16125,None,None,None,15338,None,None,None,20078,None,None,None,28516,None,None,None,34566,None
normalized net profit margin,5.3,6.5,8.3,9.5,10.6,10.7,10.8,10.9,10.2,10.3,10.5,10.3,10.2,10.0,9.7,11.1,11.2,11.1,12.1,11.1,10.6,10.3,8.9,8.4,8.0,8.0,7.8,7.2,7.4,6.9,6.2,6.0,5.8,9.2,9.4,9.6,8.9,5.7,5.9,6.2,6.4,6.6,7.0,7.5,7.1,7.3,6.9,6.1,7.2,7.6,6.8,7.0,6.6,6.2,7.2,8.0,6.7,6.0,5.9,4.6,4.6,4.3,3.6,5.0,4.5,5.4,6.0,5.7,7.0,7.2,7.4,7.4,7.2,7.4,7.6,8.9,10.8
notes payable,0.0,0.0,0.0,0.0,0.0,0.0,0.0,0.0,0.0,0.0,0.0,0.0,0.0,0.0,0.0,0.0,0.0,0.0,0.0,0.0,0.0,0.0,0.0,0.0,0.0,0.0,0.0,0.0,0.0,0.0,0.0,0.0,0.0,0.0,0.0,0.0,0.0,0.0,0.0,0.0,0.0,0.0,0.0,0.0,0.0,0.0,0.0,101.0,86.0,0.0,0.0,140.0,0.0,0.0,0.0,0.0,0.0,0.0,0.0,0.0,0.0,0.0,0.0,0.0,0.0,0.0,0.0,0.0,0.0,0.0,0.0,0.0,0.0,0.0,0.0,0.0,0.0
number of days cost of goods in inventory,72,68,65,64,67,64,63,61,66,64,64,64,66,64,66,68,70,69,68,72,75,75,75,74,74,70,73,72,74,71,69,71,75,74,71,66,67,66,65,63,66,64,62,62,64,61,60,61,63,64,65,64,66,66,66,70,76,72,58,54,71,83,83,78,76,73,74,68,73,71,70,63,70,71,70,65,72
number of employees,None,None,None,None,None,None,None,None,None,None,None,None,None,None,None,None,None,None,None,None,None,None,None,None,None,None,None,None,None,None,None,None,None,None,None,None,None,None,None,None,None,None,None,None,None,None,None,None,None,None,None,None,None,None,None,None,None,None,None,None,None,None,None,None,None,None,None,None,None,None,None,None,None,None,None,None,None
number of months last report period,3,3,3,3,3,3,3,3,3,3,3,3,3,3,3,3,3,3,3,3,3,3,3,3,3,3,3,3,3,3,3,3,3,3,3,3,3,3,3,3,3,3,3,3,3,3,3,3,3,3,3,3,3,3,3,3,3,3,3,3,3,3,3,3,3,3,3,3,3,3,3,3,3,3,3,3,3
number of part-time employees,None,None,None,None,None,None,None,None,None,None,None,None,None,None,None,None,None,None,None,None,None,None,None,None,None,None,None,None,None,None,None,None,None,None,None,None,None,None,None,None,None,None,None,None,None,None,None,None,None,None,None,None,None,None,None,None,None,None,None,None,None,None,None,None,None,None,None,None,None,None,None,None,None,None,None,None,None
operating gains,0.0,0.0,0.0,85.0,0.0,0.0,0.0,0.0,0.0,0.0,0.0,0.0,0.0,0.0,0.0,43.0,0.0,0.0,0.0,-54.0,0.0,0.0,0.0,82.0,0.0,0.0,0.0,53.0,0.0,0.0,0.0,103.0,0.0,0.0,0.0,538.0,0.0,0.0,0.0,113.0,0.0,0.0,0.0,1.0,0.0,0.0,0.0,66.0,0.0,0.0,0.0,-13.0,0.0,0.0,0.0,0.0,0.0,0.0,0.0,203.0,0.0,0.0,0.0,120.0,0.0,0.0,0.0,-142.0,-71.0,-57.0,-43.0,-8.0,230.0,233.0,109.0,287.0,40.0
operating income,0.0,0.0,0.0,0.0,0.0,0.0,0.0,0.0,0.0,0.0,0.0,0.0,0.0,0.0,0.0,0.0,0.0,0.0,0.0,0.0,0.0,0.0,0.0,0.0,0.0,0.0,0.0,0.0,0.0,0.0,0.0,0.0,0.0,0.0,0.0,0.0,0.0,0.0,0.0,0.0,0.0,0.0,0.0,0.0,0.0,0.0,0.0,0.0,0.0,0.0,0.0,0.0,0.0,0.0,0.0,0.0,0.0,0.0,0.0,804.0,-101.0,218.0,239.0,148.0,190.0,376.0,351.0,248.0,389.0,511.0,426.0,434.0,235.0,555.0,512.0,63.0,365.0
other current assets,227.1,221.1,233.9,73.4,197.6,188.4,176.6,67.8,193.7,195.0,189.9,88.5,193.4,192.0,201.0,121.0,247.0,249.0,228.0,103.0,257.0,268.0,365.0,129.0,252.0,256.0,286.0,143.0,325.0,305.0,285.0,120.0,288.0,134.0,156.0,181.0,365.0,393.0,409.0,156.0,401.0,437.0,451.0,166.0,482.0,495.0,500.0,216.0,525.0,577.0,614.0,185.0,654.0,691.0,"1,307.0",720.0,"1,229.0",782.0,750.0,282.0,849.0,851.0,841.0,263.0,825.0,780.0,779.0,278.0,820.0,828.0,777.0,302.0,844.0,819.0,799.0,392.0,824.0
other current liabilities,54.6,0.1,17.5,19.4,134.7,64.8,39.4,40.6,97.2,18.6,37.2,15.1,81.2,38.0,9.0,8.0,84.0,35.0,31.0,11.0,66.0,36.0,40.0,0.0,0.0,0.0,0.0,0.0,0.0,0.0,0.0,0.0,0.0,206.0,182.0,190.0,183.0,289.0,291.0,308.0,300.0,396.0,394.0,404.0,409.0,479.0,474.0,472.0,480.0,560.0,561.0,557.0,565.0,601.0,743.0,692.0,684.0,613.0,615.0,553.0,687.0,693.0,694.0,690.0,621.0,590.0,594.0,651.0,608.0,612.0,581.0,"1,259.0",756.0,758.0,749.0,829.0,730.0
other equity adjustments,-214.8,-220.4,-204.6,-184.7,-174.6,-193.9,-190.9,-189.6,-182.3,-202.3,-197.0,-181.2,-169.7,-191.0,-185.0,-187.0,-175.0,-194.0,-183.0,-180.0,-173.0,-178.0,-177.0,-150.0,-140.0,-154.0,-145.0,-143.0,-136.0,-166.0,-162.0,-155.0,-585.0,-499.0,-90.0,-846.0,"-1,117.0","-1,004.0",-988.0,-702.0,-720.0,-759.0,-699.0,-482.0,-556.0,-662.0,-655.0,-856.0,-818.0,-738.0,-758.0,"-1,010.0",-939.0,-838.0,-596.0,-582.0,-378.0,-300.0,-766.0,"-1,628.0","-1,877.0","-1,613.0","-1,431.0","-1,261.0","-1,353.0","-1,603.0","-1,280.0","-1,411.0","-1,187.0","-1,083.0","-1,464.0","-1,800.0","-1,653.0","-1,793.0","-1,704.0","-1,666.0","-1,608.0"
"other financing charges, net",0.0,0.0,0.0,0.0,0.0,0.0,0.0,0.0,0.0,0.0,0.0,0.0,0.0,0.0,0.0,0.0,0.0,0.0,0.0,0.0,0.0,0.0,0.0,0.0,0.0,0.0,0.0,0.0,0.0,0.0,0.0,0.0,8.0,14.0,18.0,23.0,8.0,0.0,0.0,0.0,0.0,0.0,0.0,13.0,0.0,0.0,0.0,10.0,0.0,0.0,0.0,-4.0,0.0,0.0,0.0,0.0,40.0,40.0,40.0,0.0,0.0,0.0,0.0,29.0,0.0,0.0,80.0,47.0,-14.0,-438.0,-422.0,-22.0,-13.0,-12.0,-117.0,-148.0,9.0
other fixed assets,"6,084.6","6,076.4","6,128.4",226.7,"6,010.5","6,348.1","6,392.6",233.0,"6,533.1","6,603.3","6,679.9",246.8,"6,644.2","6,667.0","6,716.0",291.0,"6,816.0","6,902.0","6,548.0",323.0,"6,734.0","6,792.0","6,757.0",348.0,"6,901.0","6,962.0","6,978.0",371.0,"7,072.0","7,060.0","7,143.0",384.0,"7,161.0","7,284.0","7,232.0",419.0,"7,352.0","7,482.0","7,479.0",453.0,"7,620.0","7,602.0","7,668.0",468.0,"7,812.0","7,749.0","7,809.0","7,802.0","7,865.0","8,058.0","8,173.0",483.0,"8,445.0","8,580.0","7,755.0",507.0,"8,816.0","9,736.0","8,099.0",604.0,"7,900.0","8,156.0","8,279.0",689.0,"8,209.0","8,014.0","8,314.0",652.0,"8,562.0","8,706.0","8,537.0",0.0,"8,808.0","8,725.0","8,851.0",0.0,"7,042.0"
other gains/losses,0.0,0.0,0.0,0.0,0.0,0.0,0.0,0.0,0.0,0.0,0.0,0.0,0.0,0.0,0.0,0.0,0.0,0.0,0.0,0.0,0.0,0.0,0.0,0.0,0.0,0.0,0.0,0.0,0.0,0.0,0.0,0.0,0.0,0.0,0.0,0.0,0.0,0.0,0.0,0.0,0.0,0.0,0.0,0.0,0.0,0.0,0.0,0.0,0.0,0.0,0.0,0.0,0.0,0.0,0.0,0.0,0.0,0.0,0.0,0.0,0.0,0.0,0.0,0.0,0.0,0.0,0.0,0.0,0.0,0.0,0.0,0.0,0.0,0.0,0.0,0.0,0.0
other income net,9.8,-5.9,5.3,-2.8,35.1,16.9,-3.6,-12.7,8.8,12.8,7.6,1.2,4.2,14.0,-7.0,47.0,9.0,10.0,119.0,9.0,2.0,12.0,9.0,20.0,-24.0,28.0,4.0,-62.0,18.0,6.0,-15.0,-25.0,19.0,2.0,1.0,-7.0,2.0,7.0,2.0,8.0,3.0,22.0,21.0,-2.0,-138.0,7.0,-47.0,-48.0,12.0,26.0,-174.0,7.0,2.0,29.0,20.0,86.0,29.0,37.0,39.0,-30.0,-14.0,32.0,33.0,21.0,13.0,33.0,32.0,6.0,15.0,44.0,36.0,18.0,-143.0,13.0,18.0,308.0,-4.0
"other investing changes, net",3.4,9.0,83.3,0.0,6.0,13.0,22.8,0.0,0.3,1.0,1.8,0.0,1.7,4.0,3.0,0.0,1.0,7.0,11.0,0.0,11.0,19.0,0.0,0.0,0.0,0.0,1.0,0.0,-2.0,0.0,0.0,0.0,1.0,6.0,40.0,0.0,1.0,13.0,42.0,0.0,0.0,0.0,56.0,0.0,0.0,0.0,0.0,-67.0,67.0,67.0,67.0,64.0,-18.0,-18.0,-16.0,"-1,716.0","1,697.0","1,697.0","1,667.0","1,911.0",-44.0,-44.0,-3.0,19.0,-40.0,-40.0,-4.0,-10.0,0.0,-3.0,87.0,142.0,-7.0,19.0,-7.0,-15.0,0.0
other non-cash items,0.0,0.0,0.0,-159.0,0.0,0.0,0.0,0.0,0.0,0.0,0.0,0.0,0.0,0.0,0.0,0.0,0.0,0.0,0.0,0.0,0.0,0.0,0.0,0.0,0.0,0.0,0.0,0.0,0.0,0.0,0.0,0.0,0.0,0.0,0.0,0.0,0.0,0.0,0.0,0.0,0.0,0.0,0.0,39.0,0.0,0.0,0.0,59.0,0.0,0.0,0.0,52.0,0.0,0.0,0.0,164.0,0.0,0.0,0.0,120.0,-291.0,106.0,760.0,13.0,-54.0,367.0,698.0,92.0,-5.0,31.0,-27.0,-11.0,168.0,109.0,207.0,91.0,"-2,186.0"
other non-current assets,855.9,826.3,832.0,983.4,938.0,967.6,"1,050.2","1,084.0","1,095.2","1,185.8","1,182.1","1,231.5","1,214.5","1,225.0","1,281.0","1,429.0","1,499.0","1,524.0","1,611.0","1,246.0","1,250.0","1,287.0","1,175.0","1,257.0","1,255.0","1,294.0","1,348.0","1,443.0","1,456.0","1,445.0","1,479.0","1,455.0","1,445.0","1,436.0","1,394.0",725.0,771.0,783.0,783.0,669.0,716.0,654.0,688.0,694.0,721.0,723.0,735.0,704.0,796.0,824.0,867.0,951.0,"1,012.0","1,095.0","1,009.0",979.0,"1,124.0","1,154.0","1,362.0","1,439.0","1,243.0","1,256.0","1,302.0","1,305.0","1,144.0","1,183.0","1,173.0","1,244.0","1,226.0","1,118.0","1,062.0","1,182.0","1,244.0","1,236.0","1,298.0","1,429.0","1,462.0"
other non-current liabilities,821.0,780.4,773.8,766.0,791.6,802.0,795.4,837.1,861.8,865.6,872.9,860.7,876.6,894.0,916.0,952.0,955.0,975.0,964.0,987.0,996.0,996.0,"1,013.0",970.0,"1,010.0","1,004.0",996.0,"1,004.0","1,010.0","1,008.0","1,011.0","1,044.0","1,052.0","1,611.0","1,554.0","1,899.0","1,961.0","1,936.0","1,979.0","1,810.0","1,850.0","1,695.0","1,706.0","1,714.0","1,760.0","1,704.0","1,702.0","1,912.0","1,967.0","1,940.0","2,055.0","2,561.0","2,493.0","2,556.0","2,395.0","2,319.0","2,599.0","2,586.0","2,491.0","3,721.0","3,367.0","3,496.0","3,548.0","3,339.0","3,179.0","3,036.0","3,113.0","3,181.0","3,064.0","3,139.0","2,973.0","3,388.0","3,510.0","3,372.0","3,356.0","3,496.0","3,020.0"
other receivable,0.0,0.0,0.0,0.0,0.0,0.0,0.0,0.0,0.0,0.0,0.0,0.0,0.0,0.0,0.0,0.0,0.0,0.0,0.0,0.0,0.0,0.0,0.0,0.0,0.0,0.0,0.0,0.0,0.0,0.0,0.0,0.0,0.0,0.0,0.0,0.0,0.0,0.0,0.0,0.0,0.0,0.0,0.0,0.0,0.0,0.0,0.0,0.0,0.0,0.0,0.0,192.0,0.0,0.0,0.0,0.0,0.0,0.0,0.0,0.0,0.0,0.0,0.0,0.0,0.0,0.0,0.0,0.0,0.0,0.0,0.0,0.0,0.0,0.0,0.0,0.0,0.0
other special charges,0.0,-85.0,0.0,0.0,0.0,0.0,0.0,0.0,0.0,0.0,0.0,0.0,0.0,0.0,0.0,-102.0,0.0,-15.0,0.0,-16.0,-24.0,0.0,-19.0,1.0,-1.0,1.0,-6.0,1.0,0.0,0.0,0.0,0.0,0.0,-772.0,24.0,-7.0,-5.0,-11.0,-8.0,-14.0,-5.0,-10.0,-6.0,-11.0,-9.0,-3.0,-4.0,-6.0,-9.0,-8.0,-6.0,-5.0,-9.0,-8.0,-5.0,-37.0,0.0,-4.0,-5.0,-37.0,0.0,0.0,0.0,0.0,0.0,0.0,0.0,0.0,0.0,0.0,0.0,0.0,0.0,0.0,0.0,-83.0,0.0
payment of cash dividends,-57.4,-116.9,-176.4,-237.8,-59.8,-117.8,-180.1,-238.9,-57.8,-118.2,-177.9,-236.6,-60.2,-119.0,-179.0,-239.0,-60.0,-124.0,-188.0,-252.0,-66.0,-132.0,-198.0,-264.0,-70.0,-139.0,-208.0,-276.0,-71.0,-141.0,-212.0,-283.0,-71.0,-142.0,-215.0,-287.0,-73.0,-146.0,-219.0,-294.0,-75.0,-153.0,-230.0,-307.0,-78.0,-159.0,-238.0,-316.0,-78.0,-157.0,-237.0,-316.0,-82.0,-165.0,-250.0,-335.0,-85.0,-171.0,-256.0,-343.0,-87.0,-184.0,-291.0,-430.0,-90.0,-208.0,-301.0,-447.0,-89.0,-210.0,-304.0,-461.0,-102.0,-229.0,-341.0,-469.0,-102.0
payout ratio,74,78,56,46,39,33,32,31,33,33,32,32,33,33,34,34,33,34,31,32,36,37,47,47,46,45,42,45,52,57,65,73,76,None,None,None,None,61,62,59,56,54,50,45,47,45,48,53,46,43,47,45,45,47,42,41,46,46,52,64,107,157,133,105,74,59,51,47,37,35,33,33,41,40,39,39,11
post-tax profit margin,5.3,5.0,6.9,8.1,9.3,10.7,10.8,10.9,10.2,10.3,10.5,10.3,10.2,10.0,9.7,9.7,9.8,9.5,10.5,10.7,9.9,9.8,7.6,7.3,7.3,7.3,7.8,7.2,6.2,5.7,5.0,4.7,4.7,-1.6,-0.9,-0.7,-0.2,5.7,5.5,5.7,5.9,6.2,6.6,7.2,6.7,7.1,6.6,5.8,6.6,7.0,6.2,6.4,6.4,5.9,7.0,7.3,5.9,5.4,4.2,3.4,2.2,1.7,2.2,3.5,4.5,5.4,6.0,5.7,7.0,7.2,7.4,7.4,5.8,6.0,6.2,7.0,8.8
pre-tax profit margin,9.8,9.2,11.9,13.5,15.2,17.5,17.8,17.9,16.9,17.1,17.4,17.2,17.0,16.7,16.2,15.9,16.3,15.8,17.1,17.2,15.9,15.6,12.7,12.5,12.7,12.8,13.3,11.8,10.1,9.2,8.2,8.2,8.0,-1.8,-0.6,-0.3,0.5,9.7,9.5,9.6,9.9,10.2,10.6,11.2,10.3,10.7,10.1,9.3,10.4,10.6,9.2,9.6,9.5,9.1,10.8,11.1,9.4,8.5,6.9,5.7,4.2,3.6,4.4,5.0,7.4,8.5,9.1,9.6,10.4,10.6,10.9,10.7,8.6,8.8,8.9,9.2,11.3
pref. securities of subsid. trust,0.0,0.0,0.0,0.0,0.0,0.0,0.0,0.0,0.0,0.0,0.0,0.0,0.0,0.0,0.0,0.0,0.0,0.0,0.0,0.0,0.0,0.0,0.0,0.0,0.0,0.0,0.0,0.0,0.0,0.0,0.0,0.0,0.0,0.0,0.0,0.0,0.0,0.0,0.0,0.0,0.0,0.0,0.0,0.0,0.0,0.0,0.0,0.0,0.0,0.0,0.0,0.0,0.0,0.0,0.0,0.0,0.0,0.0,0.0,0.0,0.0,0.0,0.0,0.0,0.0,0.0,0.0,0.0,0.0,0.0,0.0,0.0,0.0,0.0,0.0,0.0,0.0
preferred dividends,0.0,0.0,0.0,0.0,0.0,0.0,0.0,0.0,0.0,0.0,0.0,0.0,0.0,0.0,0.0,0.0,0.0,0.0,0.0,0.0,0.0,0.0,0.0,0.0,0.0,0.0,0.0,0.0,0.0,0.0,0.0,0.0,0.0,0.0,0.0,0.0,0.0,0.0,0.0,0.0,0.0,0.0,0.0,0.0,0.0,0.0,0.0,0.0,0.0,0.0,0.0,0.0,0.0,0.0,0.0,0.0,0.0,0.0,0.0,0.0,0.0,0.0,0.0,0.0,0.0,0.0,0.0,0.0,0.0,0.0,0.0,0.0,0.0,0.0,0.0,0.0,0.0
preferred equity outside stock equity,0.0,0.0,0.0,0.0,0.0,0.0,0.0,0.0,0.0,0.0,0.0,0.0,0.0,0.0,0.0,0.0,0.0,0.0,0.0,0.0,0.0,0.0,0.0,0.0,0.0,0.0,0.0,0.0,0.0,0.0,0.0,0.0,0.0,0.0,0.0,0.0,0.0,0.0,0.0,0.0,0.0,0.0,0.0,0.0,0.0,0.0,0.0,0.0,0.0,0.0,0.0,0.0,0.0,0.0,0.0,0.0,0.0,0.0,0.0,0.0,0.0,0.0,0.0,0.0,0.0,0.0,0.0,0.0,0.0,0.0,0.0,0.0,0.0,0.0,0.0,0.0,0.0
preferred secur. of subsid. trust,0.0,0.0,0.0,0.0,0.0,0.0,0.0,0.0,0.0,0.0,0.0,0.0,0.0,0.0,0.0,0.0,0.0,0.0,0.0,0.0,0.0,0.0,0.0,0.0,0.0,0.0,0.0,0.0,0.0,0.0,0.0,0.0,0.0,0.0,0.0,0.0,0.0,0.0,0.0,0.0,0.0,0.0,0.0,0.0,0.0,0.0,0.0,0.0,0.0,0.0,0.0,0.0,0.0,0.0,0.0,0.0,0.0,0.0,0.0,0.0,0.0,0.0,0.0,0.0,0.0,0.0,0.0,0.0,0.0,0.0,0.0,0.0,0.0,0.0,0.0,0.0,0.0
preferred shares,0.0,0.0,0.0,0.0,0.0,0.0,0.0,0.0,0.0,0.0,0.0,0.0,0.0,0.0,0.0,0.0,0.0,0.0,0.0,0.0,0.0,0.0,0.0,0.0,0.0,0.0,0.0,0.0,0.0,0.0,0.0,0.0,0.0,0.0,0.0,0.0,0.0,0.0,0.0,0.0,0.0,0.0,0.0,0.0,0.0,0.0,0.0,0.0,0.0,0.0,0.0,0.0,0.0,0.0,0.0,0.0,0.0,0.0,0.0,0.0,0.0,0.0,0.0,0.0,0.0,0.0,0.0,0.0,0.0,0.0,0.0,0.0,0.0,0.0,0.0,0.0,0.0
preferred stock equity,0.0,0.0,0.0,0.0,0.0,0.0,0.0,0.0,0.0,0.0,0.0,0.0,0.0,0.0,0.0,0.0,0.0,0.0,0.0,0.0,0.0,0.0,0.0,0.0,0.0,0.0,0.0,0.0,0.0,0.0,0.0,0.0,0.0,0.0,0.0,0.0,0.0,0.0,0.0,0.0,0.0,0.0,0.0,0.0,0.0,0.0,0.0,0.0,0.0,0.0,0.0,0.0,0.0,0.0,0.0,0.0,0.0,0.0,0.0,0.0,0.0,0.0,0.0,0.0,0.0,0.0,0.0,0.0,0.0,0.0,0.0,0.0,0.0,0.0,0.0,0.0,0.0
prepaid expenses,0.0,0.0,0.0,0.0,0.0,0.0,0.0,0.0,0.0,0.0,0.0,0.0,0.0,0.0,0.0,0.0,0.0,0.0,0.0,0.0,0.0,0.0,0.0,0.0,0.0,0.0,0.0,0.0,0.0,0.0,0.0,0.0,0.0,0.0,0.0,0.0,0.0,0.0,0.0,0.0,0.0,0.0,0.0,0.0,0.0,0.0,0.0,0.0,0.0,0.0,0.0,0.0,0.0,0.0,0.0,0.0,0.0,0.0,0.0,0.0,0.0,0.0,0.0,0.0,0.0,0.0,0.0,0.0,0.0,0.0,0.0,0.0,0.0,0.0,0.0,0.0,0.0
price/cash flow ratio,13.8,16.7,16.3,9.1,8.2,8.2,8.3,7.9,8.6,8.4,9.0,9.3,8.9,9.6,10.4,9.4,10.8,11.3,8.3,8.6,8.0,9.3,11.0,11.0,9.1,7.5,6.2,7.3,7.9,9.5,8.8,10.5,11.3,32.6,20.1,25.2,20.2,9.8,10.2,12.2,10.8,11.2,10.4,10.9,11.8,9.8,9.4,9.9,9.9,9.9,10.7,9.7,10.5,11.7,10.6,9.5,8.9,8.4,9.1,6.3,6.8,9.2,11.7,10.7,10.4,8.5,9.3,10.9,9.7,8.2,5.7,8.1,10.8,11.9,12.6,13.6,4.8
price/equity ratio,3.14,3.10,3.13,3.01,2.83,3.09,3.44,3.46,3.70,3.67,3.89,4.14,3.97,4.23,4.50,4.05,4.62,4.56,3.31,3.54,3.18,3.49,3.47,3.51,2.90,2.39,2.13,2.52,2.57,2.89,2.48,2.83,3.05,3.85,2.73,3.95,3.42,3.54,3.52,3.76,3.37,3.50,3.23,3.28,3.46,3.12,2.98,3.13,3.27,3.14,3.18,3.26,3.36,3.39,3.09,2.77,2.27,2.04,2.28,2.09,2.15,2.28,2.75,2.58,3.03,2.89,3.06,3.71,4.00,3.53,2.98,3.90,4.43,4.68,4.56,5.12,3.99
price/free cash flow ratio,-132.8,-625.0,82.6,79.0,164.1,48.2,34.1,23.5,-271.5,-304.7,51.8,36.4,0.0,86.8,53.1,-168.0,-566.1,231.9,-2728.1,-54.4,-59.6,-164.1,-9.4,-9.1,-44.7,-66.1,-158.8,-94.5,-90.4,76.2,23.8,18.3,-116.8,88.4,33.1,26.1,-375.7,53.4,21.9,18.0,-166.6,480.7,40.9,29.3,-1788.0,-241.4,39.5,25.8,-75.4,-97.1,-56.8,267.5,-27.4,-42.8,-77.1,149.4,-6.0,-6.1,-8.8,-8.5,-13.8,-36.0,33.3,14.9,-53.2,208.3,53.5,25.9,-48.8,-99.8,59.9,24.0,-67.5,2122.4,42.1,26.5,27.9
price/revenue ratio,1.37,1.36,1.39,1.21,1.18,1.27,1.30,1.26,1.31,1.28,1.39,1.42,1.34,1.43,1.53,1.38,1.60,1.63,1.28,1.36,1.20,1.40,1.39,1.40,1.13,0.93,0.79,0.90,0.90,1.03,0.90,1.07,1.17,1.32,0.95,1.05,0.93,1.02,1.04,1.25,1.12,1.18,1.13,1.23,1.26,1.07,0.98,0.94,1.01,1.04,1.03,0.95,1.02,1.07,1.06,1.03,0.79,0.68,0.63,0.44,0.41,0.54,0.79,0.79,0.86,0.77,0.90,1.00,1.09,1.00,0.74,0.85,0.97,1.07,1.17,1.37,1.29
price/tangible book ratio,3.14,3.10,3.13,3.01,2.83,3.09,3.44,3.46,3.70,3.67,3.89,4.14,3.97,4.23,4.50,4.05,4.62,4.56,3.31,4.42,4.03,4.34,7.30,7.55,6.43,5.03,4.46,5.38,5.47,5.93,5.04,5.67,6.05,8.92,6.11,14.41,11.56,10.51,9.71,8.69,7.70,7.61,6.60,6.31,6.57,6.06,5.92,6.84,6.78,6.49,7.22,8.42,8.58,7.90,6.47,5.58,-50.01,382.47,-142.24,-8.93,-5.51,-7.49,-13.57,-21.68,-24.87,-31.79,-80.00,-38.56,-45.56,-146.44,-51.96,-23.65,-25.68,-64.71,198.00,95.99,18.03
purchase of  short-term investments,0.0,0.0,0.0,0.0,0.0,0.0,0.0,0.0,0.0,0.0,0.0,0.0,0.0,0.0,0.0,0.0,0.0,0.0,0.0,0.0,0.0,0.0,0.0,0.0,0.0,0.0,0.0,0.0,0.0,0.0,0.0,0.0,0.0,0.0,0.0,0.0,0.0,0.0,0.0,0.0,0.0,0.0,0.0,0.0,"-1,282.0","-1,872.0","-1,872.0","-1,990.0",-101.0,-516.0,-861.0,-963.0,0.0,0.0,0.0,0.0,0.0,0.0,0.0,0.0,0.0,0.0,0.0,0.0,0.0,0.0,0.0,-624.0,-146.0,-146.0,-135.0,-125.0,-91.0,-291.0,-753.0,"-1,355.0",-248.0
purchase of long-term investments,0.0,0.0,0.0,0.0,0.0,0.0,0.0,0.0,0.0,0.0,0.0,0.0,0.0,0.0,0.0,0.0,0.0,0.0,0.0,0.0,0.0,0.0,0.0,0.0,0.0,0.0,0.0,0.0,0.0,0.0,0.0,0.0,0.0,0.0,0.0,0.0,0.0,0.0,0.0,0.0,0.0,0.0,0.0,0.0,0.0,0.0,0.0,0.0,0.0,0.0,0.0,0.0,0.0,0.0,0.0,0.0,0.0,0.0,0.0,0.0,0.0,0.0,0.0,0.0,0.0,-5.0,-5.0,0.0,0.0,0.0,0.0,0.0,0.0,0.0,0.0,0.0,0.0
quarterly indicator,1,2,3,4,1,2,3,4,1,2,3,4,1,2,3,4,1,2,3,4,1,2,3,4,1,2,3,4,1,2,3,4,1,2,3,4,1,2,3,4,1,2,3,4,1,2,3,4,1,2,3,4,1,2,3,4,1,2,3,4,1,2,3,4,1,2,3,4,1,2,3,4,1,2,3,4,1
quick ratio,0.9,1.0,1.1,0.9,0.9,1.0,0.9,0.8,0.8,0.8,0.8,0.7,0.8,0.9,0.8,0.9,0.9,0.9,1.1,0.8,0.7,0.8,0.8,0.7,0.7,0.8,0.7,0.7,0.6,0.7,0.7,0.8,0.8,0.8,0.8,0.8,0.9,0.9,0.9,1.0,1.0,1.0,1.1,1.1,1.1,1.1,1.1,1.0,1.0,1.0,0.9,0.9,0.9,0.9,0.9,1.0,0.8,0.9,0.9,0.9,0.8,1.0,1.0,1.0,1.0,1.1,1.1,1.3,1.2,1.2,1.2,1.2,0.9,1.0,1.2,1.2,1.4
receivables,"1,221.4","1,294.8","1,229.2","1,228.9","1,413.0","1,402.6","1,319.8","1,245.1","1,339.2","1,388.8","1,278.6","1,225.6","1,344.8","1,376.0","1,301.0","1,353.0","1,443.0","1,509.0","1,354.0","1,366.0","1,438.0","1,500.0","1,592.0","1,594.0","1,713.0","1,724.0","1,652.0","1,563.0","1,617.0","1,637.0","1,534.0","1,416.0","1,533.0","1,640.0","1,559.0","1,486.0","1,649.0","1,773.0","1,689.0","1,631.0","1,794.0","1,845.0","1,809.0","1,797.0","1,920.0","1,987.0","1,968.0","1,871.0","2,038.0","2,248.0","2,240.0","2,168.0","2,434.0","2,583.0","2,497.0","2,398.0","3,433.0","3,907.0","3,453.0","2,804.0","2,713.0","2,847.0","2,853.0","2,628.0","2,809.0","2,781.0","2,958.0","2,778.0","3,126.0","3,345.0","3,088.0","2,830.0","3,236.0","3,310.0","3,190.0","2,813.0","2,824.0"
receivables as % of revenue,21.1,22.0,20.3,19.4,21.4,20.5,18.9,17.6,19.0,19.5,17.8,17.0,18.6,18.9,17.9,18.3,19.2,19.9,17.9,18.2,19.4,20.4,21.2,20.5,21.3,20.8,19.6,18.1,18.7,19.0,18.0,17.3,19.3,20.7,19.5,18.4,20.0,21.0,19.7,18.6,20.0,20.3,19.5,18.9,19.7,19.9,19.5,18.3,19.7,21.4,20.8,19.6,21.5,22.1,21.4,21.4,27.3,28.1,22.6,17.7,18.5,21.4,23.2,21.5,22.3,21.5,22.5,20.7,22.6,23.3,20.9,19.0,21.4,22.0,21.2,18.5,19.1
receivables per day sales,76.02,79.28,73.15,69.88,77.13,73.75,67.92,63.51,68.23,70.33,64.05,61.13,66.81,68.08,64.27,66.01,69.13,71.71,64.42,65.48,69.96,73.54,76.49,73.98,76.69,74.74,70.56,65.21,67.37,68.57,64.85,62.40,69.46,74.59,70.30,66.31,71.84,75.69,70.94,67.06,72.17,73.20,70.20,68.00,70.95,71.75,70.10,66.03,70.91,76.97,74.88,70.71,77.43,79.72,76.92,77.04,98.16,101.25,81.28,63.69,66.58,77.00,83.43,77.30,80.37,77.46,80.92,74.50,81.37,83.87,75.38,68.44,77.13,79.06,76.21,66.62,68.79
receivables turnover,4.8,4.8,5.2,5.7,5.0,5.1,5.5,5.7,5.1,5.1,5.5,5.8,5.4,5.3,5.6,5.7,5.4,5.3,5.7,5.5,5.1,4.9,5.1,5.2,5.1,5.2,5.2,5.5,5.2,5.1,5.3,5.5,5.0,4.8,5.2,5.6,5.2,4.9,5.3,5.6,5.2,5.0,5.3,5.6,5.2,5.2,5.4,5.6,5.2,5.0,5.1,5.5,5.1,4.8,4.9,4.9,4.3,4.3,5.1,6.1,4.8,3.9,3.9,4.5,4.6,4.6,4.5,5.0,4.7,4.7,4.9,5.3,4.7,4.5,4.8,5.4,4.9
repayment of long-term debt,-16.0,-42.3,-138.0,-88.0,-139.7,-194.1,-151.7,-141.9,-109.3,-176.4,-195.5,-228.8,-109.4,-185.0,-225.0,-391.0,-63.0,-133.0,-234.0,-244.0,-96.0,-205.0,-302.0,-494.0,-86.0,-188.0,-271.0,-323.0,-61.0,-247.0,-501.0,-787.0,-127.0,-186.0,-325.0,-491.0,-45.0,-173.0,-330.0,-398.0,-11.0,-19.0,-330.0,-357.0,-62.0,-399.0,-523.0,-542.0,-58.0,-113.0,-193.0,-238.0,-51.0,-94.0,-101.0,-154.0,"-3,267.0","-3,481.0","-3,697.0","-3,691.0",-19.0,-174.0,-885.0,"-1,076.0",-157.0,-205.0,-198.0,-262.0,-6.0,6.0,-4.0,-398.0,-155.0,-181.0,-198.0,-190.0,-600.0
repurchase of capital stock,-57.1,-56.7,-53.0,-280.0,-29.8,-119.1,-388.3,-588.0,-191.4,-350.7,-410.7,-635.1,-93.8,-202.0,-294.0,-343.0,-41.0,-67.0,-70.0,-217.0,-79.0,-76.0,-74.0,-82.0,0.0,0.0,-118.0,-247.0,0.0,0.0,0.0,-5.0,0.0,0.0,0.0,0.0,0.0,0.0,0.0,0.0,-6.0,-8.0,-8.0,-100.0,-110.0,-312.0,-501.0,-607.0,0.0,-48.0,-51.0,-153.0,-56.0,-177.0,-270.0,-274.0,-7.0,-6.0,-6.0,-7.0,0.0,0.0,0.0,-59.0,0.0,-105.0,-275.0,-586.0,-283.0,-383.0,-633.0,-858.0,-92.0,-92.0,-92.0,-92.0,-140.0
restricted cash,0.0,0.0,0.0,0.0,0.0,0.0,0.0,0.0,0.0,0.0,0.0,0.0,0.0,0.0,0.0,0.0,0.0,0.0,0.0,0.0,0.0,0.0,0.0,0.0,0.0,0.0,0.0,0.0,0.0,0.0,0.0,0.0,0.0,0.0,0.0,0.0,0.0,0.0,0.0,0.0,0.0,0.0,0.0,0.0,0.0,0.0,0.0,0.0,0.0,0.0,0.0,0.0,0.0,0.0,0.0,0.0,12.0,12.0,42.0,24.0,0.0,0.0,0.0,0.0,0.0,0.0,0.0,0.0,0.0,0.0,0.0,0.0,0.0,0.0,0.0,0.0,0.0
retained earnings,"3,502.2","3,539.7","3,626.5","3,717.1","3,877.2","4,036.9","4,145.9","4,249.0","4,364.2","4,533.2","4,665.5","4,759.8","4,866.4","5,026.0","5,139.0","5,239.0","5,371.0","5,508.0","5,692.0","5,791.0","5,849.0","5,968.0","6,001.0","6,098.0","6,168.0","6,303.0","6,385.0","6,444.0","6,430.0","6,515.0","6,538.0","6,551.0","6,514.0","6,099.0","6,174.0","6,197.0","6,203.0","6,282.0","6,350.0","6,399.0","6,439.0","6,545.0","6,670.0","6,776.0","6,793.0","6,944.0","7,021.0","7,057.0","7,163.0","7,364.0","7,375.0","7,453.0","7,576.0","7,742.0","7,848.0","7,963.0","7,976.0","8,141.0","8,172.0","8,156.0","7,958.0","8,017.0","8,088.0","8,139.0","8,080.0","8,262.0","8,433.0","8,548.0","8,687.0","8,938.0","9,159.0","9,288.0","9,213.0","9,486.0","9,734.0","9,871.0","12,196.0"
revenue per $  plant (net),2.09,2.15,2.23,2.31,2.39,2.48,2.53,2.49,2.48,2.48,2.49,2.48,2.52,2.54,2.56,2.58,2.61,2.62,2.70,2.59,2.57,2.55,2.62,2.64,2.76,2.84,2.91,2.93,3.03,3.07,3.05,2.97,2.95,2.96,3.06,3.06,3.16,3.23,3.37,3.41,3.56,3.70,3.83,3.85,4.04,4.23,4.33,4.43,4.53,4.45,4.46,4.42,4.50,4.60,4.89,4.62,3.87,4.13,5.40,5.66,5.52,4.85,4.45,4.44,4.73,5.10,5.02,5.00,5.13,5.20,5.53,5.47,5.42,5.54,5.46,5.26,6.01
revenue per $ cash,49.48,112.00,36.51,101.95,90.10,68.05,59.13,66.83,79.39,58.32,68.83,103.71,66.17,69.30,80.97,57.20,53.30,50.17,28.66,58.67,90.24,76.49,45.69,49.09,55.46,57.67,62.43,77.74,110.78,72.84,53.56,75.64,110.35,58.20,48.98,68.95,107.31,55.12,30.29,17.55,19.20,15.56,16.54,13.42,15.22,21.21,20.67,21.89,24.87,25.09,34.08,24.26,62.18,59.21,51.48,21.30,42.25,52.22,29.64,15.52,27.63,12.65,13.71,11.58,18.26,16.49,14.15,10.01,17.37,14.62,11.34,10.22,15.44,14.82,10.83,11.64,7.31
revenue per $ common equity,2.30,2.28,2.25,2.48,2.40,2.43,2.65,2.75,2.83,2.87,2.80,2.91,2.95,2.95,2.93,2.94,2.88,2.80,2.59,2.61,2.65,2.50,2.50,2.50,2.56,2.57,2.68,2.79,2.87,2.81,2.74,2.65,2.62,2.90,2.88,3.75,3.70,3.47,3.40,3.01,3.01,2.97,2.85,2.66,2.74,2.92,3.05,3.34,3.22,3.02,3.09,3.41,3.29,3.17,2.92,2.70,2.88,3.00,3.64,4.76,5.18,4.19,3.48,3.26,3.50,3.75,3.40,3.69,3.67,3.54,4.03,4.58,4.59,4.36,3.90,3.74,3.09
revenue per $ invested capital,1.76,1.76,1.75,1.90,1.94,1.97,2.07,2.14,2.20,2.14,2.11,2.18,2.09,2.11,2.10,1.96,1.96,1.93,1.83,1.90,1.92,1.84,1.54,1.57,1.62,1.64,1.70,1.76,1.83,1.80,1.77,1.71,1.68,1.79,1.78,2.10,2.10,2.05,2.21,2.06,2.08,2.08,2.08,2.00,2.08,2.17,2.25,2.42,2.36,2.25,2.30,2.51,2.46,2.41,2.25,2.09,1.57,1.72,2.06,2.50,2.52,2.05,1.86,1.79,1.89,2.00,1.90,1.75,1.78,1.87,2.03,2.18,2.40,2.35,2.09,2.05,1.82
revenue per share,27.22,27.66,28.43,30.56,31.99,33.75,35.68,36.30,37.37,38.11,39.19,39.40,40.19,40.58,40.91,41.44,42.37,42.80,42.71,42.88,42.60,42.30,43.11,44.55,46.17,47.74,49.94,51.30,51.31,51.08,50.58,48.42,47.07,46.74,47.12,47.61,48.69,49.69,50.44,51.23,52.16,52.89,54.01,55.31,56.75,58.68,60.51,61.72,62.46,63.65,65.16,67.27,68.93,71.11,71.37,68.41,76.72,84.64,93.13,96.50,89.18,80.72,73.73,73.88,75.65,78.26,80.73,83.69,87.45,91.15,95.50,98.00,99.18,98.72,98.27,98.98,103.61
revenue/assets,1.0,1.0,1.0,1.1,1.1,1.1,1.1,1.1,1.1,1.1,1.1,1.1,1.1,1.1,1.1,1.1,1.1,1.0,1.1,1.0,1.0,1.0,0.9,0.9,0.9,0.9,0.9,0.9,1.0,1.0,1.0,1.0,0.9,0.9,0.9,1.0,1.0,1.0,1.0,1.0,1.0,1.0,1.1,1.1,1.1,1.1,1.1,1.2,1.2,1.1,1.1,1.1,1.1,1.1,1.1,0.9,0.8,0.9,1.0,1.1,1.1,0.9,0.8,0.9,0.9,1.0,0.9,0.9,0.9,0.9,1.0,1.0,1.0,1.0,1.0,1.0,1.0
sale of long-term investments,0.0,0.0,0.0,0.0,0.0,0.0,0.0,0.0,0.0,0.0,0.0,0.0,0.0,0.0,0.0,0.0,0.0,0.0,0.0,0.0,0.0,0.0,0.0,0.0,0.0,0.0,0.0,0.0,0.0,0.0,0.0,0.0,0.0,0.0,0.0,0.0,0.0,0.0,0.0,0.0,0.0,0.0,0.0,0.0,0.0,0.0,0.0,0.0,0.0,0.0,0.0,0.0,0.0,0.0,0.0,0.0,0.0,0.0,0.0,0.0,17.0,19.0,19.0,0.0,0.0,0.0,6.0,0.0,0.0,168.0,78.0,0.0,0.0,0.0,0.0,0.0,0.0
sale of short-term investments,0.0,0.0,0.0,0.0,98.7,117.0,129.1,0.0,10.4,12.3,14.3,0.0,2.7,22.0,22.0,0.0,1.0,3.0,15.0,0.0,12.0,16.0,0.0,0.0,0.0,0.0,16.0,0.0,0.0,0.0,0.0,0.0,0.0,0.0,0.0,0.0,0.0,0.0,0.0,0.0,0.0,0.0,0.0,0.0,"1,294.0","1,922.0","1,922.0","2,040.0",101.0,516.0,861.0,963.0,0.0,0.0,0.0,0.0,0.0,0.0,0.0,0.0,0.0,0.0,0.0,0.0,0.0,0.0,0.0,0.0,150.0,474.0,724.0,749.0,0.0,0.0,121.0,250.0,987.0
sales per $ inventory,8.05,8.47,8.81,9.22,8.60,9.00,9.21,9.57,9.06,9.52,9.22,9.06,8.84,9.02,8.90,8.55,8.37,8.40,8.70,8.19,7.81,8.03,7.35,7.63,7.54,7.78,7.88,7.70,7.57,7.99,8.47,9.04,8.38,8.23,8.34,8.56,8.23,8.40,8.66,8.78,8.57,8.85,9.19,8.84,8.62,9.02,9.06,9.12,8.66,8.26,7.82,7.94,7.76,7.88,8.44,8.19,6.37,6.54,8.41,9.31,8.75,7.96,7.43,7.91,7.87,8.39,8.03,8.53,7.88,7.88,8.49,9.26,8.25,8.49,8.48,9.01,8.70
sales per $ receivables,4.74,4.54,4.92,5.15,4.67,4.88,5.30,5.67,5.28,5.12,5.62,5.89,5.39,5.29,5.60,5.45,5.21,5.02,5.59,5.50,5.15,4.90,4.71,4.87,4.69,4.82,5.10,5.52,5.34,5.25,5.55,5.77,5.18,4.83,5.12,5.43,5.01,4.76,5.07,5.37,4.99,4.92,5.13,5.29,5.07,5.02,5.14,5.45,5.08,4.68,4.81,5.09,4.65,4.52,4.68,4.67,3.67,3.56,4.43,5.65,5.41,4.68,4.32,4.66,4.48,4.65,4.45,4.83,4.42,4.29,4.78,5.26,4.67,4.55,4.72,5.40,5.23
sales per employee,None,None,None,205558,None,None,None,226208,None,None,None,230610,None,None,None,231317,None,None,None,231077,None,None,None,229497,None,None,None,242388,None,None,None,234069,None,None,None,236569,None,None,None,266140,None,None,None,299151,None,None,None,331201,None,None,None,342764,None,None,None,321089,None,None,None,352984,None,None,None,306742,None,None,None,350470,None,None,None,387630,None,None,None,387755,None
shares out (common class only),212.5,212.6,212.8,207.1,206.2,202.8,196.0,194.5,189.1,186.5,183.4,183.2,180.3,179.3,178.1,178.1,177.4,177.0,177.2,175.1,173.7,173.6,173.8,174.1,174.1,173.9,168.8,168.2,168.4,168.3,168.4,168.7,168.8,169.4,169.4,169.4,169.7,169.7,169.9,170.9,171.6,171.6,171.8,172.0,171.7,169.9,167.0,165.3,165.6,165.2,165.3,164.1,164.2,164.1,163.7,163.8,164.1,164.1,164.2,164.2,164.5,164.9,167.0,165.7,166.3,165.1,163.0,160.4,158.2,157.5,154.4,151.9,152.3,152.7,153.4,153.6,142.6
short-term debt,475.8,381.0,300.7,370.7,382.2,370.0,444.6,485.3,689.4,761.2,584.7,648.3,590.2,598.0,566.0,444.0,522.0,512.0,335.0,637.0,777.0,711.0,872.0,954.0,"1,105.0","1,018.0","1,024.0","1,161.0","1,284.0","1,116.0",944.0,696.0,735.0,627.0,494.0,352.0,332.0,234.0,385.0,327.0,347.0,348.0,165.0,166.0,161.0,164.0,72.0,0.0,0.0,139.0,118.0,0.0,306.0,216.0,178.0,"1,819.0",805.0,816.0,726.0,903.0,869.0,896.0,455.0,272.0,112.0,59.0,69.0,28.0,96.0,111.0,102.0,108.0,669.0,647.0,636.0,642.0,48.0
special income charges,0.0,-85.0,0.0,0.0,0.0,0.0,0.0,0.0,0.0,0.0,0.0,0.0,0.0,0.0,0.0,-102.0,0.0,-15.0,0.0,-16.0,-24.0,0.0,-59.0,1.0,-1.0,1.0,-6.0,1.0,-101.0,0.0,-2.0,0.0,-81.0,-768.0,24.0,-7.0,-5.0,-14.0,-8.0,-14.0,-5.0,-10.0,-6.0,-11.0,-9.0,-3.0,-4.0,-6.0,-44.0,-10.0,-6.0,-5.0,-9.0,-8.0,-5.0,-61.0,-23.0,-4.0,-168.0,9.0,-186.0,0.0,0.0,0.0,0.0,0.0,0.0,0.0,0.0,0.0,0.0,0.0,-208.0,0.0,0.0,-291.0,0.0
tangible book value per share,11.84,12.11,12.64,12.34,13.32,13.88,13.47,13.21,13.22,13.30,13.97,13.55,13.61,13.74,13.94,14.09,14.70,15.27,16.49,13.16,12.73,13.62,8.22,8.29,8.13,8.80,8.89,8.61,8.43,8.87,9.08,9.12,9.07,6.94,7.32,3.48,3.90,4.83,5.38,7.37,7.57,8.21,9.29,10.81,10.89,10.35,9.99,8.46,9.35,10.17,9.29,7.63,8.19,9.64,11.68,12.59,-1.21,0.15,-0.41,-4.75,-6.70,-5.86,-4.29,-2.70,-2.63,-1.90,-0.91,-2.18,-2.09,-0.62,-1.36,-3.53,-3.73,-1.64,0.58,1.41,7.43
total assets per share,27.77,27.40,27.57,28.45,29.82,30.45,31.57,31.86,33.57,34.86,35.04,35.16,36.35,36.62,36.70,38.57,40.06,40.82,40.26,42.18,42.80,43.27,50.35,51.20,52.09,52.32,53.50,54.24,53.81,53.20,52.43,50.10,50.29,51.68,50.65,46.41,47.44,49.06,48.87,49.28,50.16,50.40,50.06,51.93,52.56,51.74,52.65,52.52,53.84,57.53,59.14,61.07,63.01,65.13,66.61,77.10,96.89,98.75,91.63,89.49,82.69,88.32,87.25,85.96,82.70,80.93,86.62,93.37,95.50,96.92,94.18,94.69,97.41,97.04,101.77,103.40,107.79
total capitalization,"3,287.3","3,342.4","3,457.6","3,302.0","3,402.1","3,468.5","3,385.5","3,276.0","3,212.2","3,329.6","3,405.6","3,288.7","3,461.1","3,444.0","3,473.0","3,725.0","3,837.0","3,926.0","4,124.0","3,927.0","3,863.0","3,986.0","4,850.0","4,932.0","4,962.0","5,050.0","4,959.0","4,897.0","4,715.0","4,765.0","4,823.0","4,769.0","4,716.0","4,415.0","4,480.0","3,839.0","3,935.0","4,114.0","3,878.0","4,250.0","4,301.0","4,355.0","4,455.0","4,756.0","4,686.0","4,601.0","4,499.0","4,222.0","4,388.0","4,673.0","4,678.0","4,389.0","4,594.0","4,836.0","5,184.0","5,352.0","8,013.0","8,064.0","7,425.0","6,342.0","5,816.0","6,481.0","6,620.0","6,827.0","6,643.0","6,467.0","6,940.0","7,681.0","7,759.0","7,667.0","7,252.0","6,823.0","6,281.0","6,425.0","7,226.0","7,431.0","8,140.0"
total debt as % total assets,57.4,55.8,54.1,56.6,55.3,54.4,57.3,58.5,60.6,61.8,60.1,61.5,62.6,62.5,62.0,63.5,63.3,62.6,59.0,61.0,62.4,60.9,65.7,65.2,65.4,64.6,65.2,66.1,66.7,65.8,64.9,63.6,64.2,68.9,67.7,72.7,72.2,70.8,69.6,65.4,65.5,64.6,62.1,60.0,60.7,61.2,62.3,64.8,64.0,63.4,64.4,67.7,66.8,65.5,63.3,67.1,72.5,71.5,72.1,77.3,79.2,78.2,75.7,73.6,73.9,74.2,72.6,75.7,75.1,73.4,74.8,77.4,77.8,76.6,75.3,74.4,68.9
total debt/equity ratio,0.50,0.45,0.40,0.45,0.38,0.36,0.45,0.48,0.56,0.65,0.56,0.60,0.65,0.64,0.63,0.68,0.67,0.64,0.53,0.60,0.66,0.60,0.91,0.90,0.93,0.88,0.91,0.96,0.99,0.92,0.86,0.78,0.79,0.85,0.79,0.95,0.91,0.79,0.69,0.57,0.56,0.54,0.42,0.38,0.37,0.40,0.38,0.42,0.39,0.38,0.38,0.40,0.43,0.37,0.34,0.73,1.02,0.92,0.94,1.17,1.36,1.32,1.00,0.89,0.88,0.89,0.81,1.12,1.09,0.92,1.01,1.13,1.11,1.04,1.04,0.99,0.71
total non-current assets,"3,618.6","3,562.0","3,550.9","3,725.7","3,696.9","3,725.4","3,813.8","3,918.8","3,945.2","4,049.3","4,073.7","4,145.0","4,085.9","4,086.0","4,127.0","4,284.0","4,377.0","4,413.0","4,417.0","4,727.0","4,710.0","4,734.0","5,609.0","5,852.0","5,895.0","5,910.0","5,886.0","6,032.0","5,900.0","5,816.0","5,844.0","5,749.0","5,646.0","5,659.0","5,532.0","4,918.0","4,956.0","5,003.0","4,933.0","4,887.0","4,902.0","4,758.0","4,768.0","4,878.0","4,813.0","4,733.0","4,721.0","4,662.0","4,744.0","4,985.0","5,226.0","5,429.0","5,616.0","5,733.0","5,491.0","5,493.0","8,950.0","9,116.0","8,467.0","8,350.0","7,833.0","8,143.0","8,321.0","8,259.0","7,834.0","7,480.0","7,815.0","7,917.0","8,019.0","8,028.0","7,603.0","7,688.0","7,890.0","7,666.0","7,829.0","8,163.0","7,650.0"
total ordinary shares,0.0,0.0,0.0,0.0,0.0,0.0,0.0,0.0,0.0,0.0,0.0,0.0,0.0,0.0,0.0,0.0,0.0,0.0,0.0,0.0,0.0,0.0,0.0,0.0,0.0,0.0,0.0,0.0,0.0,0.0,0.0,0.0,0.0,0.0,0.0,0.0,0.0,0.0,0.0,0.0,0.0,0.0,0.0,0.0,0.0,0.0,0.0,0.0,0.0,0.0,0.0,0.0,0.0,0.0,0.0,0.0,0.0,0.0,0.0,0.0,0.0,0.0,0.0,0.0,0.0,0.0,0.0,0.0,0.0,0.0,0.0,0.0,0.0,0.0,0.0,0.0,0.0
total revenue,"1,476.9","1,619.3","1,575.3","1,659.7","1,740.8","1,870.4","1,724.1","1,722.4","1,748.8","1,913.6","1,801.2","1,754.5","1,776.6","1,944.0","1,812.0","1,846.0","1,913.0","2,004.0","1,804.0","1,789.0","1,803.0","1,947.0","1,954.0","2,053.0","2,087.0","2,210.0","2,078.0","2,254.0","2,099.0","2,164.0","1,999.0","1,907.0","1,875.0","2,134.0","2,068.0","1,990.0","2,071.0","2,304.0","2,206.0","2,175.0","2,264.0","2,429.0","2,409.0","2,411.0","2,493.0","2,656.0","2,547.0","2,505.0","2,638.0","2,824.0","2,802.0","2,773.0","2,917.0","3,173.0","2,823.0","2,874.0","3,720.0","4,474.0","4,225.0","3,188.0","2,783.0","3,115.0","3,225.0","3,116.0","3,126.0","3,458.0","3,460.0","3,379.0","3,533.0","3,986.0","3,849.0","3,517.0","3,752.0","3,955.0","3,845.0","3,648.0","3,331.0"
treasury shares,78.1,78.0,77.8,83.4,84.4,87.7,94.5,96.1,101.5,104.1,107.2,107.4,110.3,111.3,112.4,112.5,113.2,113.6,113.4,115.4,116.9,117.0,116.8,116.5,116.4,116.6,121.8,122.4,122.2,122.3,122.2,121.9,121.8,121.2,121.9,121.0,121.0,121.0,121.0,119.5,119.5,119.5,119.5,118.4,118.4,118.4,118.4,125.2,125.2,125.2,125.2,126.4,126.4,126.4,126.4,126.8,126.8,561.8,561.8,126.4,126.4,0.0,0.0,124.9,0.0,0.0,0.0,0.0,0.0,0.0,0.0,138.7,0.0,0.0,0.0,137.0,0.0
treasury stock,"-1,284.1","-1,282.6","-1,279.9","-1,488.6","-1,515.9","-1,605.0","-1,874.8","-2,059.6","-2,250.2","-2,410.2","-2,469.1","-2,667.2","-2,758.1","-2,865.0","-2,957.0","-2,990.0","-3,029.0","-3,057.0","-3,060.0","-3,198.0","-3,276.0","-3,271.0","-3,269.0","-3,268.0","-3,264.0","-3,263.0","-3,383.0","-3,508.0","-3,505.0","-3,497.0","-3,498.0","-3,496.0","-3,489.0","-3,479.0","-3,472.0","-3,471.0","-3,464.0","-3,463.0","-3,457.0","-3,428.0","-3,418.0","-3,409.0","-3,405.0","-3,455.0","-3,498.0","-3,692.0","-3,878.0","-3,984.0","-3,977.0","-4,013.0","-4,010.0","-4,101.0","-4,127.0","-4,200.0","-4,267.0","-4,267.0","-4,262.0","-4,262.0","-4,259.0","-4,259.0","-4,249.0","-4,235.0","-4,165.0","-4,218.0","-4,199.0","-4,290.0","-4,442.0","-4,708.0","-4,960.0","-5,044.0","-5,288.0","-5,506.0","-5,548.0","-5,531.0","-5,504.0","-5,496.0","-7,173.0"
working capital,823.3,892.4,"1,025.9",743.7,874.8,939.3,794.3,646.1,548.3,592.1,658.7,527.5,740.5,749.0,755.0,922.0,911.0,"1,019.0","1,186.0",748.0,680.0,790.0,850.0,678.0,669.0,710.0,683.0,550.0,503.0,631.0,672.0,748.0,773.0,850.0,982.0,"1,025.0","1,151.0","1,273.0","1,135.0","1,398.0","1,464.0","1,505.0","1,609.0","1,833.0","1,888.0","1,824.0","1,738.0","1,670.0","1,830.0","1,879.0","1,793.0","1,805.0","1,780.0","1,989.0","2,384.0","2,475.0","2,457.0","2,346.0","2,110.0","2,138.0","1,800.0","2,320.0","2,379.0","2,404.0","2,504.0","2,513.0","2,782.0","3,433.0","3,335.0","3,317.0","3,152.0","2,992.0","2,386.0","2,586.0","3,287.0","3,254.0","3,999.0"
working capital as % of price,10.4,11.2,12.2,9.7,11.2,10.8,8.7,7.3,5.9,6.5,6.6,5.1,7.6,7.2,6.8,9.1,7.6,8.3,12.3,7.3,7.6,7.7,8.2,6.2,7.3,9.2,10.2,7.1,6.5,7.1,8.7,8.6,8.3,8.1,13.0,12.1,15.0,14.8,12.8,12.8,14.6,14.0,15.3,15.6,15.4,17.1,17.6,17.4,17.4,17.2,16.2,17.1,15.4,15.9,19.3,21.5,24.7,24.9,22.0,30.7,29.6,32.1,24.5,24.8,23.0,25.2,23.4,25.5,22.2,23.2,28.9,23.6,16.4,16.0,18.7,15.7,20.9
working capital per share,3.87,4.20,4.82,3.59,4.24,4.63,4.05,3.32,2.90,3.17,3.59,2.88,4.11,4.18,4.24,5.18,5.14,5.76,6.69,4.27,3.91,4.55,4.89,3.89,3.84,4.08,4.05,3.27,2.99,3.75,3.99,4.43,4.58,5.02,5.80,6.05,6.78,7.50,6.68,8.18,8.53,8.77,9.37,10.66,11.00,10.74,10.41,10.10,11.05,11.38,10.85,11.00,10.84,12.12,14.56,15.11,14.97,14.29,12.85,13.02,10.94,14.07,14.25,14.51,15.05,15.22,17.07,21.41,21.09,21.06,20.41,19.70,15.67,16.94,21.43,21.19,28.03
working captial as % of equity,32.7,34.7,38.1,29.1,31.9,33.4,30.1,25.1,21.9,23.9,25.7,21.2,30.2,30.4,30.4,36.7,34.9,37.7,40.6,26.0,24.3,26.9,28.3,21.8,21.3,22.0,21.8,17.8,16.7,20.6,21.7,24.3,25.5,31.2,35.4,47.7,51.5,52.4,45.0,48.0,49.3,49.2,49.4,51.3,53.2,53.4,52.4,54.7,56.9,54.0,51.5,55.8,51.8,54.0,59.6,59.6,56.2,50.7,50.2,64.1,63.6,73.1,67.2,64.1,69.7,72.8,71.8,94.4,88.6,81.8,86.1,92.1,72.5,74.7,85.1,80.1,83.5
